-2.266803e+00	-2.142852e+01	-1.406719e+01	-1.286047e+01	-7.919901e+00	-5.855298e+00	-3.162280e+00	-1.872790e+00	1.972168e+00	6.678268e+00	1.403681e+01	2.484955e+01	3.653690e+01	4.762257e+01	5.650468e+01	5.602394e+01	4.949318e+01	3.903889e+01	2.811733e+01	1.782885e+01	1.090140e+01	9.270173e+00	7.801705e+00	6.293794e+00	3.887292e+00	2.689127e+00	1.114685e+00	4.978874e-02	-1.052670e+00	-5.873485e-01	-8.171109e-01	-6.907792e-01	-1.278402e+00	-1.348157e+00	-2.644523e+00	-2.524314e+00	-2.480876e+00	-1.353519e+00	-1.310339e+00	-3.751270e-01	-5.907828e-01	-3.103000e-01	-1.936786e+00	-2.823569e+00	-6.878509e+00	-1.137176e+01	-1.649705e+01	-1.748017e+01	-1.714837e+01	-1.363611e+01	-1.125803e+01	-6.111672e+00	-2.657068e+00	1.759154e+00	2.940662e+00	4.366539e+00	3.845594e+00	5.392024e+00	4.718230e+00	5.093360e+00	3.194531e+00	3.627771e+00	2.481981e+00	3.408235e+00	2.711409e+00	4.481642e+00	3.519310e+00	4.115905e+00	1.884257e+00	1.979435e+00	-1.446337e-01	8.889332e-01	9.924888e-02	1.386225e+00	-1.655220e+00	-2.497516e+00	-4.742068e+00	-2.338315e+00	-2.249633e+00	7.690604e-01	1.458078e-01	1.895199e+00	-1.219180e+00	-8.345892e-01	-3.045902e+00	-5.243510e-01	-2.465115e+00	-1.351095e-01	-1.913204e+00	1.956131e+00	2.081125e-01	4.234082e+00	2.057449e+00	6.519722e+00	2.986583e+00	8.029464e+00	1.922923e+00	5.055594e+00	-1.600812e+01	-9.630066e+00	1.733112e+02	5.485726e+02	4.069198e+02	1.220118e+02	1.106098e+02	5.259143e+01	1.219192e+01	-6.438676e+00	-2.590067e+00	-1.161083e+01	-7.434951e+00	-9.206562e+00	-3.792994e+00	-6.145403e+00	-6.286766e+00	-1.251447e+01	-1.205861e+01	-1.184814e+01	-6.592943e+00	-5.644619e+00	-3.741627e+00	-3.606767e+00	-5.507260e-01	1.098635e+00	5.783562e+00	1.304149e+01	2.541842e+01	3.535708e+01	4.459915e+01	5.063135e+01	5.409268e+01	5.363243e+01	5.221564e+01	4.762215e+01	4.112607e+01	3.069988e+01	1.989739e+01	1.065370e+01	6.886200e+00	5.430497e+00	5.584134e+00	4.629917e+00	3.265512e+00	1.078597e+00	-7.285206e-01	-2.219805e+00	-2.989966e+00	-3.934049e+00	-4.706936e+00	-5.683863e+00	-7.057196e+00	-8.910112e+00	-1.024760e+01	-9.691680e+00	-7.064185e+00	-3.850052e+00	-2.363723e+00	-1.284113e+00	-5.210135e-01	1.758146e+00	3.016291e+00	3.649013e+00	1.948971e+00	2.552155e-01	-2.307605e+00	-3.566507e+00	-4.957856e+00	-4.225011e+00	-3.719107e+00	-1.598521e+00	-2.283452e-01	2.413909e+00	3.282705e+00	4.394611e+00	3.497246e+00	4.364305e+00	4.093150e+00	5.634070e+00	5.194317e+00	5.942091e+00	3.586826e+00	3.311159e+00	1.436142e+00	2.589643e+00	9.726629e-01	2.422320e+00	1.319770e+00	4.000229e+00	2.493314e+00	3.538151e+00	-2.445865e+00	-5.478442e+00	-2.353090e+01	9.326391e+00	2.526050e+02	5.404581e+02	2.742072e+02	9.694618e+01	1.078287e+02	4.998057e+01	8.667012e+00	-1.890790e+01	-1.579723e+01	-2.275623e+01	-1.842025e+01	-2.045056e+01	-1.637460e+01	-1.780450e+01	-1.350800e+01	-1.166409e+01	-4.941670e+00	-1.859474e+00	1.991741e+00	2.504537e+00	5.490495e+00	6.208235e+00	7.997079e+00	7.930886e+00	9.900528e+00	1.410266e+01	2.332724e+01	3.265031e+01	4.253722e+01	5.214266e+01	6.035439e+01	6.311005e+01	6.350101e+01	5.858591e+01	4.903599e+01	3.545932e+01	2.223281e+01	1.084896e+01	4.525437e+00	5.117513e-01	-2.918301e+00	-3.928563e+00	-4.397275e+00	-4.064144e+00	-4.562691e+00	-3.121638e+00	-1.459878e+00	1.632371e+00	2.920599e+00	3.614051e+00	1.394381e+00	-4.153872e-01	-3.865251e+00	-7.819222e+00	-1.437600e+01	-1.579296e+01	-1.393121e+01	-7.291956e+00	-3.365362e+00	8.492661e-01	2.225623e+00	6.101450e+00	8.575270e+00	1.525642e+01	1.804445e+01	2.091783e+01	1.605369e+01	1.157239e+01	1.735619e+00	-6.838395e-01	-5.224238e+00	-3.225345e+00	-7.824227e+00	-4.285213e+00	-5.843077e+00	2.460973e+00	-1.691624e+00	3.602790e+00	-9.783786e+00	1.843473e+00	1.465722e+02	5.295814e+02	4.576309e+02	1.486573e+02	1.428681e+02	6.585861e+01	1.212269e+01	-1.762804e+01	-1.463463e+01	-2.388002e+01	-1.860855e+01	-2.098705e+01	-1.454304e+01	-1.440648e+01	-7.853376e+00	-7.350728e+00	-2.221109e+00	-3.000787e+00	4.943497e-01	1.752461e-02	3.734625e+00	4.148101e+00	8.236517e+00	8.784063e+00	1.328379e+01	1.523690e+01	2.160896e+01	2.621877e+01	3.348054e+01	3.819476e+01	4.438580e+01	4.697542e+01	4.833571e+01	4.364372e+01	3.788178e+01	2.841893e+01	1.979832e+01	1.223064e+01	8.291898e+00	3.650235e+00	4.234535e-01	-4.436160e+00	-1.011663e+01	-1.861978e+01	-2.485014e+01	-2.806899e+01	-2.719671e+01	-2.462855e+01	-2.041153e+01	-1.587524e+01	-1.050244e+01	-5.447756e+00	-9.049090e-01	3.768915e+00	5.685273e+00	5.765702e+00	3.446695e+00	1.636865e+00	-1.252617e+00	-2.789606e+00	-6.580929e+00	-9.903800e+00	-1.516091e+01	-1.354068e+01	-9.215030e+00	1.201264e+00	6.919878e+00	1.500361e+01	1.498879e+01	1.929601e+01	1.423440e+01	1.607932e+01	5.728752e+00	6.041453e+00	-1.671188e+01	-2.207378e+01	1.158109e+02	5.027807e+02	4.464620e+02	1.145281e+02	1.133690e+02	5.717193e+01	1.668683e+01	-1.173086e+01	-1.096545e+00	-8.973673e+00	-1.889923e+00	-1.013825e+01	-6.746520e+00	-1.388751e+01	-1.216203e+01	-2.104985e+01	-2.184555e+01	-2.837645e+01	-2.531776e+01	-2.732743e+01	-1.873484e+01	-1.246717e+01	1.294730e+00	6.801304e+00	1.894185e+01	2.492729e+01	3.539046e+01	3.879883e+01	4.603798e+01	4.564074e+01	4.661743e+01	3.894209e+01	3.456536e+01	2.438360e+01	1.884993e+01	1.034799e+01	9.601254e+00	6.160082e+00	8.705351e+00	5.986982e+00	6.931634e+00	1.945809e+00	9.362181e-01	-5.182573e+00	-6.900457e+00	-1.392509e+01	-1.635762e+01	-2.192469e+01	-2.087994e+01	-2.244557e+01	-1.753573e+01	-1.646316e+01	-9.512180e+00	-6.574647e+00	1.570309e-01	1.440410e+00	5.667684e+00	4.022271e+00	7.044629e+00	5.779612e+00	8.668876e+00	6.437673e+00	7.255230e+00	2.475146e+00	1.833450e+00	-3.193156e+00	-2.784040e+00	-6.952580e+00	-5.718220e+00	-7.794447e+00	-3.920119e+00	-4.560156e+00	-4.074719e-01	-1.592625e+00	2.766548e+00	3.055926e+00	9.366430e+00	8.411566e+00	9.746709e+00	2.679733e+00	1.496914e+00	-3.995921e+00	-4.082949e+00	-1.184889e+01	-1.309254e+01	-1.712618e+01	-9.314048e+00	-5.899058e+00	3.749263e+00	3.292130e+00	9.058493e+00	5.889647e+00	1.229606e+01	8.449340e+00	1.424322e+01	4.273826e+00	6.211556e+00	-1.363661e+01	-1.016740e+01	9.540336e+01	4.493654e+02	4.413645e+02	1.225956e+02	1.067375e+02	7.117503e+01	2.303748e+01	-3.350573e+00	1.091067e-01	-6.012588e+00	-3.335299e+00	-6.472413e+00	-8.442875e+00	-1.712251e+01	-2.167836e+01	-2.410812e+01	-2.101771e+01	-1.920409e+01	-1.688232e+01	-1.671180e+01	-1.387043e+01	-9.255018e+00	-3.401365e+00	6.472922e-01	4.075764e+00	8.500333e+00	1.724360e+01	2.595390e+01	3.325657e+01	3.851910e+01	3.998472e+01	4.267798e+01	4.304200e+01	4.026449e+01	3.385638e+01	2.678375e+01	1.979783e+01	1.411760e+01	8.071269e+00	5.640249e+00	1.493989e+00	-1.085566e+00	-5.101342e+00	-5.337841e+00	-5.716220e+00	-3.888626e+00	-4.798243e+00	-2.756762e+00	-2.447046e+00	4.223406e-01	1.513598e-01	1.828768e+00	-6.937876e-02	2.164884e-01	-2.050387e+00	8.425035e-01	1.531998e+00	4.943840e+00	3.326538e+00	4.973582e+00	2.442771e+00	3.671417e+00	-2.229216e-02	2.066328e+00	8.213272e-02	2.538031e+00	-2.729415e+00	-2.533235e+00	-8.906744e+00	-8.466062e+00	-1.517527e+01	-1.028083e+01	-1.138534e+01	-3.151975e-01	-4.693853e+00	2.965624e+00	-1.601863e+01	-1.704239e+00	1.387286e+02	4.962576e+02	4.002350e+02	1.224508e+02	1.185433e+02	6.225793e+01	2.277009e+01	-1.377295e+01	-2.582867e+00	-1.210612e+01	-3.262487e+00	-6.270920e+00	1.836634e+00	-2.529936e+00	1.532440e+00	-2.722272e+00	1.450425e+00	-1.356183e+00	3.168349e+00	1.433388e+00	5.202639e+00	2.877151e+00	6.971458e+00	8.630798e+00	1.842294e+01	2.655770e+01	3.875918e+01	4.689320e+01	6.013340e+01	6.429498e+01	7.030699e+01	7.074097e+01	7.200899e+01	6.195898e+01	5.307174e+01	3.980267e+01	3.012939e+01	1.896972e+01	1.324099e+01	7.170263e+00	5.445194e+00	1.389961e+00	-4.922491e-01	-3.699681e+00	-4.028316e+00	-7.222171e+00	-9.118566e+00	-1.258141e+01	-1.205369e+01	-1.231845e+01	-9.500835e+00	-7.427795e+00	-3.248991e+00	-2.413909e+00	-1.439375e+00	-3.143881e+00	-2.431831e+00	-2.831269e+00	-6.196293e-01	-2.448214e-01	1.430633e+00	8.390533e-01	2.429685e+00	2.402850e+00	3.466446e+00	1.261035e+00	7.442065e-01	-6.704368e-01	1.030828e+00	1.067534e+00	2.754328e+00	2.169891e+00	3.664590e+00	3.708967e+00	5.506731e+00	3.870060e+00	1.753798e+00	-3.024712e+00	-4.499879e+00	-4.965465e+00	-1.755718e+00	2.677681e-01	3.058758e+00	2.500859e+00	1.805701e+00	-1.025912e+00	-1.965476e+00	-4.492437e+00	-4.951675e+00	-6.057287e+00	-4.413984e+00	-3.929984e+00	-2.554952e+00	-3.224269e+00	-2.200176e+00	-2.397466e+00	-1.538267e-01	1.698825e+00	6.846560e+00	1.044601e+01	1.323830e+01	1.086591e+01	7.647972e+00	1.101268e+00	-1.407145e+00	-3.561997e+00	-9.890005e-01	-1.337455e+00	2.013512e-01	-1.761069e+00	1.738690e+00	2.445142e+00	8.066734e+00	5.417730e+00	6.278652e+00	-6.928423e+00	-1.486919e+01	4.778199e+01	3.696661e+02	5.563641e+02	2.220481e+02	1.056400e+02	8.244604e+01	1.993935e+01	-6.306819e+00	-6.567655e+00	-4.931780e+00	-1.865345e+00	2.026283e+00	2.699841e+00	1.559906e+00	-2.090283e+00	-5.716697e+00	-1.144672e+01	-1.678767e+01	-2.040069e+01	-2.071394e+01	-2.070566e+01	-1.905050e+01	-1.554837e+01	-8.102493e+00	1.282297e+00	1.291397e+01	2.406721e+01	3.416325e+01	4.117160e+01	4.706843e+01	5.046512e+01	5.039410e+01	4.646114e+01	4.127487e+01	3.419339e+01	2.488216e+01	1.469291e+01	5.795945e+00	5.685627e-01	1.871165e-01	5.090149e-01	1.121694e+00	2.332279e+00	5.398334e+00	7.363579e+00	7.945765e+00	6.048401e+00	3.572685e+00	9.332812e-01	-1.614556e+00	-4.119345e+00	-7.428275e+00	-1.116220e+01	-1.251301e+01	-1.113024e+01	-8.975623e+00	-7.977522e+00	-7.572959e+00	-6.329952e+00	-4.012028e+00	-2.174470e+00	-5.038923e-01	1.168180e+00	3.249154e+00	4.800971e+00	5.070898e+00	4.104804e+00	3.295153e+00	2.489833e+00	2.063090e+00	1.489324e+00	6.213646e-01	-9.571307e-01	-2.085187e+00	-2.142793e+00	-9.693852e-01	-4.781408e-01	-2.602777e-01	-4.187092e-01	-3.009220e-01	-4.078589e-02	7.867397e-01	2.055207e+00	3.337047e+00	3.847692e+00	4.212593e+00	4.501232e+00	4.038660e+00	2.906860e+00	1.394152e+00	-3.252661e-02	-1.762479e+00	-3.758233e+00	-5.133605e+00	-5.969416e+00	-6.119953e+00	-4.878328e+00	-2.013984e+00	4.269455e-01	1.369772e+00	9.227768e-01	4.123110e-01	-3.975517e-01	-1.393896e+00	-2.561499e+00	-2.990655e+00	-2.320476e+00	-1.485734e+00	-1.855573e+00	-3.399933e+00	-3.890970e+00	-2.328322e+00	1.419318e+00	4.357516e+00	6.243492e+00	6.043991e+00	5.668949e+00	4.886132e+00	6.566546e+00	5.971848e+00	5.873925e+00	3.389358e+00	5.011068e+00	3.651655e+00	4.519931e+00	-4.289251e+00	-1.472354e+01	2.563793e+01	3.110004e+02	4.849870e+02	1.713842e+02	8.944414e+01	8.440963e+01	2.877875e+01	-5.522160e+00	-1.073888e+01	-1.312723e+01	-1.590301e+01	-1.491190e+01	-1.197018e+01	-7.822286e+00	-5.412400e+00	-5.754122e+00	-6.035777e+00	-5.780612e+00	-4.250091e+00	-3.270753e+00	-1.028132e+00	1.646155e+00	5.650139e+00	9.583270e+00	1.633772e+01	2.395901e+01	3.372213e+01	4.142387e+01	5.153737e+01	5.879234e+01	6.249528e+01	6.291957e+01	6.252939e+01	5.918831e+01	5.309885e+01	4.349367e+01	3.466487e+01	2.454882e+01	1.562946e+01	8.778843e+00	2.687011e+00	-3.055318e+00	-6.866387e+00	-9.454658e+00	-8.145315e+00	-6.614420e+00	-4.855156e+00	-4.637629e+00	-2.777266e+00	-1.118811e+00	1.505395e+00	2.521675e+00	4.067865e+00	4.196571e+00	4.165100e+00	1.969534e+00	6.676926e-02	-2.067684e+00	-1.968097e+00	-1.631893e+00	-1.198870e+00	-2.152389e+00	-2.634546e+00	-3.101350e+00	-2.716255e+00	-3.078162e+00	-2.576633e+00	-2.136824e+00	-6.337067e-01	-2.324669e-01	2.191722e-01	-4.053774e-01	-1.453184e-01	-8.928424e-01	-1.470473e+00	-2.782135e+00	-1.819205e+00	-6.785766e-01	1.108886e+00	2.023466e+00	4.294884e+00	4.814650e+00	4.761231e+00	2.263886e+00	1.143299e+00	-1.067325e+00	-2.468511e+00	-4.081668e+00	-2.602384e+00	-1.679998e+00	-1.423741e-01	-5.803594e-02	1.628194e+00	1.518787e+00	1.690890e+00	6.036174e-01	1.904906e+00	2.805564e+00	6.150450e+00	7.897269e+00	1.019019e+01	9.274180e+00	8.337475e+00	4.545260e+00	2.510191e+00	-9.295975e-01	-1.262120e+00	-6.258688e+00	-1.126270e+01	-2.117079e+01	-3.064227e+01	2.753024e+01	3.385739e+02	5.611706e+02	2.508617e+02	1.187314e+02	9.745914e+01	3.641923e+01	-1.524670e-01	-1.021540e+01	-9.618350e+00	-1.578186e+01	-1.442039e+01	-1.498298e+01	-9.413159e+00	-7.984690e+00	-4.303829e+00	-3.606569e+00	-3.341945e-01	-7.395299e-01	-5.040486e-01	-2.227761e+00	-3.965198e-01	5.706245e-01	4.848087e+00	1.013006e+01	1.869380e+01	2.732664e+01	3.610635e+01	4.075600e+01	4.955034e+01	5.656977e+01	6.112115e+01	5.967038e+01	5.496174e+01	4.463239e+01	3.281255e+01	1.968390e+01	9.029687e+00	2.746825e+00	1.993476e-01	-1.987989e+00	-8.123263e-01	5.486415e-01	3.223838e+00	3.311897e+00	3.119504e+00	1.302405e+00	1.253554e+00	3.644453e-01	3.644957e-02	-3.612543e+00	-7.926452e+00	-1.284430e+01	-1.421537e+01	-1.427424e+01	-1.161594e+01	-9.085937e+00	-4.717355e+00	-2.189867e+00	1.459080e+00	3.879816e+00	7.071756e+00	7.413303e+00	7.446282e+00	4.800829e+00	2.517691e+00	-2.007145e+00	-5.494056e+00	-1.077472e+01	-1.239344e+01	-1.196013e+01	-7.338357e+00	-4.125015e+00	-4.671960e-01	1.518206e+00	5.887343e+00	8.260524e+00	1.100184e+01	1.061395e+01	1.104945e+01	8.966640e+00	8.149872e+00	4.618970e+00	1.774352e+00	-2.978579e+00	-5.352255e+00	-7.639954e+00	-6.128707e+00	-4.092319e+00	-1.084764e+00	-9.186472e-02	-4.228194e-01	-4.236123e+00	5.133121e+01	3.663327e+02	6.009366e+02	2.738414e+02	1.324206e+02	1.193831e+02	3.751580e+01	-5.134590e+00	-1.349767e+01	-1.121761e+01	-1.024161e+01	-4.874084e+00	-2.782673e+00	-6.045158e-01	1.704894e+00	3.940961e+00	5.423013e+00	3.649405e+00	2.369133e+00	-3.128718e-01	-2.873292e-01	-3.167011e+00	-5.629520e-02	4.205861e-01	1.606477e+01
-1.214040e+00	-2.056609e+01	-9.871288e+00	-7.278527e+00	-6.095370e+00	-3.267393e+00	1.025407e+00	1.034421e+01	2.872916e+01	5.500726e+01	8.000940e+01	1.020926e+02	1.196851e+02	1.379724e+02	1.484700e+02	1.540601e+02	1.511761e+02	1.429328e+02	1.226245e+02	1.009392e+02	7.454897e+01	5.054730e+01	2.663323e+01	1.202845e+01	3.203828e+00	1.375449e+00	-2.835368e+00	-4.138063e+00	-7.442690e+00	-7.034178e+00	-9.109964e+00	-7.139140e+00	-4.547715e+00	4.654308e+00	1.018112e+01	1.409895e+01	1.070908e+01	8.526728e+00	2.726895e+00	5.326456e-01	-3.700887e+00	-3.553107e+00	-7.062270e+00	-8.555671e+00	-1.326427e+01	-1.385864e+01	-1.630159e+01	-1.371603e+01	-1.241757e+01	-6.174334e+00	-3.581337e+00	2.151866e+00	2.512789e+00	6.614031e+00	5.794215e+00	8.894863e+00	6.052195e+00	6.388158e+00	-5.134538e-02	-2.172997e+00	-8.233767e+00	-7.120473e+00	-1.006723e+01	-6.915607e+00	-7.838772e+00	-2.934694e+00	-4.329491e+00	5.959715e-01	1.557601e+00	8.958730e+00	7.749966e+00	1.074801e+01	7.219606e+00	1.229375e+01	1.015850e+01	1.397352e+01	9.037227e+00	1.093884e+01	4.287122e+00	5.076320e+00	-3.684349e+00	-3.642104e+00	-1.281417e+01	-1.128705e+01	-1.837628e+01	-1.166115e+01	-1.469962e+01	-3.941595e+00	-7.082376e+00	2.813777e+00	-3.853380e+00	4.859478e+00	-5.271964e+00	3.817736e+00	-6.716624e+00	1.047398e+01	-3.071898e+00	1.363681e+01	-3.440296e+01	3.533371e+01	3.142501e+02	8.119775e+02	8.126446e+02	4.973881e+02	-4.879586e+00	-2.392901e+02	-2.702286e+00	-1.627601e+01	-4.941746e+00	-1.468496e+01	-2.652871e+00	-7.876885e+00	1.755810e+00	-5.640539e+00	-2.144265e+00	-8.956858e+00	-3.303064e+00	-4.102875e+00	3.943543e+00	2.887093e+00	6.762134e+00	3.406563e+00	6.514550e+00	5.773006e+00	1.344460e+01	2.484837e+01	4.800936e+01	6.845527e+01	9.225524e+01	1.114997e+02	1.347818e+02	1.509185e+02	1.582640e+02	1.466299e+02	1.269279e+02	9.647000e+01	6.788374e+01	4.023430e+01	1.682926e+01	3.625469e+00	-2.526535e+00	-5.453512e+00	-5.754408e+00	-5.837854e+00	-5.079641e+00	-3.001718e+00	8.261209e-01	4.141062e+00	4.363363e+00	1.708639e+00	-9.601700e-01	-4.065336e-01	2.050136e+00	4.836653e+00	5.259626e+00	4.227149e+00	5.031066e-01	-1.082257e+00	-1.766545e+00	-1.422883e+00	-4.671665e+00	-5.748939e+00	-6.610598e+00	-6.005553e+00	-9.055664e+00	-8.208105e+00	-7.526940e+00	-4.263682e+00	-5.438247e+00	-4.168543e+00	-4.291428e+00	1.535985e+00	5.063551e+00	1.068688e+01	1.049092e+01	1.239748e+01	7.502406e+00	5.735392e+00	-7.373228e-01	-1.417865e+00	-8.567250e+00	-9.903375e+00	-1.331727e+01	-6.460027e+00	-6.234496e+00	-8.480664e-01	-3.868004e+00	6.440470e-01	-4.153158e+00	-1.426859e-01	-7.942929e+00	-8.442827e+00	-4.243002e+01	8.888167e+01	4.522681e+02	9.209487e+02	7.960545e+02	4.458270e+02	-1.018177e+02	-2.008635e+02	7.505274e+00	-2.000557e+01	1.151487e+00	-8.740346e+00	2.730718e+00	-7.668210e+00	-4.105141e+00	-1.453984e+01	-8.863413e+00	-1.105639e+01	1.163159e+00	6.606495e+00	1.908185e+01	1.981031e+01	2.238697e+01	1.697133e+01	2.102713e+01	2.993510e+01	5.362877e+01	7.745156e+01	1.007850e+02	1.196383e+02	1.407221e+02	1.537581e+02	1.667584e+02	1.682741e+02	1.667999e+02	1.508135e+02	1.235206e+02	9.253160e+01	6.189579e+01	3.208664e+01	1.038268e+01	-1.407613e+00	-6.779651e+00	-9.891664e+00	-1.220497e+01	-1.362313e+01	-1.451627e+01	-1.212752e+01	-7.548125e+00	-6.834797e-01	3.500564e+00	6.490219e+00	5.589553e+00	5.236573e+00	3.408542e+00	3.630143e+00	6.493233e-01	1.697037e-01	-5.905764e-01	3.707630e+00	4.517493e+00	6.874139e+00	3.156982e+00	2.260952e+00	-3.294966e+00	-1.342100e+00	-3.083137e+00	1.384045e+00	-2.240674e+00	-2.900397e-02	-5.946096e+00	-3.016015e+00	-8.963123e+00	-3.853007e+00	-9.864449e+00	-3.389962e+00	-1.093998e+01	8.240459e-01	-8.650501e+00	4.332956e+00	-3.144230e+01	3.307912e+01	2.753093e+02	7.679739e+02	8.460219e+02	5.049583e+02	7.670912e+01	-2.828115e+02	-5.109557e+01	-2.461710e+01	-3.175166e+01	-2.251989e+01	-1.789891e+01	-1.519289e+01	-9.149017e+00	-6.573808e+00	2.009151e+00	4.273325e+00	1.036546e+01	1.006062e+01	1.227841e+01	9.014723e+00	1.073455e+01	1.043637e+01	1.594053e+01	2.226985e+01	3.730499e+01	5.492729e+01	7.705386e+01	9.621120e+01	1.183564e+02	1.384929e+02	1.566574e+02	1.656516e+02	1.650778e+02	1.461888e+02	1.171437e+02	8.494110e+01	5.403338e+01	2.704244e+01	8.241919e+00	-5.593423e-01	-4.991294e+00	-6.122347e+00	-6.074386e+00	-3.591121e+00	-1.077383e+00	2.379434e+00	2.532059e+00	1.788565e+00	-1.440181e+00	-8.083031e-01	-6.678149e-01	1.742551e+00	7.708712e-02	6.104036e-01	-3.279078e+00	-5.367732e+00	-1.287807e+01	-1.549796e+01	-1.998511e+01	-1.641449e+01	-1.555468e+01	-7.930865e+00	-7.792938e+00	-1.568769e+00	-3.833989e+00	4.653495e+00	2.786300e+00	1.035559e+01	2.356676e+00	1.009325e+01	6.371641e-01	1.189887e+01	-7.263720e+00	4.732905e+00	-4.428913e+01	5.435434e+00	2.275643e+02	7.134614e+02	8.330992e+02	5.110621e+02	1.196488e+02	-2.668744e+02	-3.809411e+01	-9.069293e+00	-6.067241e+00	-1.226589e+01	-9.904969e-01	-1.004602e+01	-2.482904e+00	-1.463413e+01	-1.074257e+01	-2.019648e+01	-1.106195e+01	-1.095803e+01	3.946724e+00	6.659763e+00	2.034808e+01	2.454608e+01	4.125562e+01	5.076880e+01	7.105232e+01	7.727643e+01	8.932774e+01	9.010542e+01	1.053716e+02	1.173137e+02	1.416416e+02	1.530743e+02	1.594859e+02	1.363518e+02	1.116779e+02	7.552234e+01	5.062441e+01	2.330948e+01	1.710690e+01	8.022543e+00	7.060984e+00	-2.029074e+00	-2.872947e+00	-1.025544e+01	-6.850359e+00	-7.757101e+00	4.484931e-01	3.844453e-01	6.406817e+00	5.114256e+00	1.289846e+01	1.578870e+01	2.287682e+01	1.654915e+01	1.325044e+01	2.727760e-01	-3.641920e+00	-1.204376e+01	-1.221420e+01	-1.804055e+01	-1.581441e+01	-1.870474e+01	-1.243274e+01	-1.253250e+01	-6.308357e+00	-8.799996e+00	-3.442480e+00	-2.991559e+00	6.180110e+00	5.247824e+00	7.206954e+00	-1.730590e+00	-2.818796e+00	-9.292878e+00	-5.901160e+00	-9.001761e+00	-3.169065e+00	-3.318654e+00	5.000343e+00	5.414356e+00	1.473151e+01	1.343992e+01	1.838255e+01	1.107166e+01	1.312817e+01	5.970965e+00	8.221228e+00	-3.027571e+00	-1.755824e+00	-9.834935e+00	-3.513408e+00	-1.262381e+01	-8.173009e+00	-1.714687e+01	-2.330463e+00	-5.800875e+00	1.402927e+01	-4.423832e+00	4.800879e+01	2.956262e+02	7.710855e+02	9.337465e+02	6.255057e+02	1.273530e+02	-2.624753e+02	-5.985219e+01	-1.865793e+01	-3.240928e+01	-2.516365e+01	-2.414826e+01	-1.503073e+01	-8.734744e+00	-8.482518e-01	6.209169e+00	1.317042e+01	1.387107e+01	1.043025e+01	1.686411e+00	-3.822672e+00	-6.583168e+00	-4.270522e+00	-3.574458e+00	1.643765e+00	5.972908e+00	1.812904e+01	3.604925e+01	6.833242e+01	1.022287e+02	1.291243e+02	1.463172e+02	1.524838e+02	1.487443e+02	1.367672e+02	1.134695e+02	8.880400e+01	6.006474e+01	3.640017e+01	1.654139e+01	1.028281e+01	2.793079e+00	-6.404082e-01	-6.364707e+00	-4.657377e+00	-7.335976e+00	-5.087535e+00	-5.701124e+00	2.496904e+00	6.313638e+00	1.283997e+01	1.211078e+01	1.643918e+01	1.427663e+01	1.666797e+01	1.077231e+01	1.119767e+01	5.233901e+00	5.626547e+00	-2.453907e+00	-2.249881e+00	-8.546292e+00	-4.744305e+00	-9.925876e+00	-5.954638e+00	-1.205007e+01	-6.172815e+00	-1.016519e+01	-1.884556e+00	-9.326982e+00	-5.113928e+00	-1.651336e+01	-1.006482e+01	-2.327981e+01	-1.380973e+01	-3.070653e+01	-1.502452e+01	-6.490934e+01	2.721775e+01	2.693251e+02	7.827437e+02	8.698519e+02	5.171165e+02	9.194002e+01	-2.466757e+02	-2.726085e+01	-2.606108e+00	-6.746407e+00	-1.534514e+01	-1.239351e+01	-2.103162e+01	-1.214944e+01	-1.364755e+01	-8.679729e-01	1.628919e+00	1.531942e+01	1.713203e+01	2.739984e+01	2.646196e+01	3.162786e+01	3.090685e+01	4.089494e+01	4.875361e+01	6.494222e+01	7.461279e+01	9.206147e+01	1.042311e+02	1.252622e+02	1.385486e+02	1.518266e+02	1.590433e+02	1.656139e+02	1.515982e+02	1.285719e+02	9.753197e+01	7.019679e+01	4.151135e+01	2.103368e+01	6.219215e+00	5.637722e-01	-6.988527e+00	-9.321249e+00	-1.301192e+01	-1.143126e+01	-1.114442e+01	-6.339054e+00	-3.336651e+00	2.030057e+00	2.125001e+00	3.420530e+00	2.642538e+00	5.879160e+00	6.565681e+00	8.876255e+00	7.641339e+00	7.151372e+00	1.929863e+00	-2.007286e+00	-7.079081e+00	-9.122814e+00	-1.241137e+01	-1.109662e+01	-8.944550e+00	-2.979041e+00	1.966899e-01	3.100175e+00	7.243249e-01	-4.571995e-01	-2.504189e+00	3.440336e-01	1.634068e+00	3.176048e+00	-5.786670e-01	-3.252587e+00	-7.790633e+00	-9.218620e+00	-1.074387e+01	-7.397541e+00	-5.297504e+00	-2.806314e+00	-2.999841e+00	-5.817842e-01	1.631879e-01	1.815525e+00	2.124476e+00	5.847532e+00	7.990715e+00	9.883803e+00	7.107985e+00	4.665574e+00	-2.330966e-03	-1.106006e+00	-2.568872e+00	-4.244369e-01	-3.435751e-01	2.351717e+00	2.055770e+00	3.606828e+00	4.660231e-01	-2.388900e-01	-2.591068e+00	7.792585e-01	7.615300e-01	1.826580e+00	-2.857189e+00	-3.816636e+00	-8.817364e+00	-9.119762e+00	-1.102528e+01	-3.568901e+00	-9.962708e-01	7.283222e+00	4.258160e+00	9.508464e+00	-4.006727e+00	2.100502e-01	1.599677e+02	5.918095e+02	9.176959e+02	6.816283e+02	2.868476e+02	-2.162486e+02	-1.188485e+02	1.302899e+01	-1.507361e+01	-2.196390e+00	-9.851114e+00	-5.677060e+00	-9.003426e+00	-6.488705e+00	-9.377512e+00	-8.147899e+00	-1.098985e+01	-1.034667e+01	-1.097463e+01	-6.492987e+00	-2.707814e+00	5.130195e+00	1.348586e+01	2.730473e+01	3.976320e+01	5.648538e+01	7.104608e+01	8.727859e+01	1.046705e+02	1.259524e+02	1.462429e+02	1.626903e+02	1.649434e+02	1.613495e+02	1.500554e+02	1.268705e+02	9.625894e+01	6.579898e+01	3.760207e+01	1.840868e+01	7.107693e+00	-5.345522e-02	-3.450627e+00	-2.119714e+00	-1.179586e+00	-2.051884e+00	-4.456442e+00	-5.018897e+00	-3.812524e+00	-3.473671e-01	4.112695e+00	8.782994e+00	1.193111e+01	1.438632e+01	1.309913e+01	8.303916e+00	1.849416e-01	-4.467305e+00	-4.741570e+00	-3.240392e+00	-2.648343e+00	-2.189024e+00	-1.427815e+00	3.879826e-01	2.162532e+00	2.144780e+00	7.280877e-01	2.254141e-01	5.975878e-01	2.407334e-01	-2.238665e+00	-5.356846e+00	-8.050217e+00	-9.638726e+00	-1.056393e+01	-1.079708e+01	-9.887939e+00	-8.339801e+00	-5.305079e+00	-1.357307e+00	3.365634e+00	7.067526e+00	9.757099e+00	1.045277e+01	8.910291e+00	4.296774e+00	-1.417855e+00	-6.892899e+00	-9.903761e+00	-1.053972e+01	-9.354062e+00	-9.233427e+00	-8.235492e+00	-3.947190e+00	2.992387e+00	8.561474e+00	1.161422e+01	1.215182e+01	1.036249e+01	6.465862e+00	4.049842e+00	2.965638e+00	1.522499e+00	-2.496484e+00	-5.965641e+00	-7.890714e+00	-7.871847e+00	-8.236834e+00	-6.991455e+00	-4.666856e+00	-5.023546e-02	1.502833e+00	3.161825e+00	4.102175e+00	7.379118e+00	6.513208e+00	5.487262e+00	2.122969e+00	1.946843e+00	-2.182191e+00	-2.657692e+00	-6.567129e+00	-2.277979e+00	-5.219965e+00	1.674191e+00	-1.200174e+01	-9.872980e+00	1.363347e+02	5.659487e+02	9.453018e+02	7.343880e+02	2.830429e+02	-2.224245e+02	-1.259412e+02	6.862729e+00	-2.189699e+01	-1.340197e+01	-1.862393e+01	-1.433895e+01	-1.230831e+01	-7.566884e+00	-4.940025e+00	-1.430188e+00	1.847094e+00	4.433157e+00	6.097525e+00	6.945311e+00	9.369241e+00	1.187209e+01	1.598614e+01	2.206878e+01	3.462602e+01	5.187958e+01	7.608703e+01	9.861854e+01	1.213961e+02	1.415053e+02	1.544067e+02	1.601120e+02	1.631710e+02	1.586446e+02	1.416227e+02	1.124173e+02	8.071680e+01	4.775855e+01	1.965061e+01	1.018385e+00	-4.173852e+00	-7.465213e+00	-8.671456e+00	-1.053986e+01	-7.506231e+00	-3.335706e+00	1.202291e+00	1.211815e+00	1.546108e+00	8.769025e-01	2.154667e+00	1.373138e+00	2.778089e+00	4.034055e+00	7.050389e+00	7.640106e+00	8.572803e+00	7.585267e+00	6.670349e+00	1.992791e+00	-2.513459e+00	-5.835762e+00	-5.448051e+00	-6.011735e+00	-7.035664e+00	-9.966369e+00	-1.081363e+01	-9.785971e+00	-5.161765e+00	-2.242785e+00	-7.382289e-01	-2.365840e+00	-2.201472e+00	-1.960927e+00	7.310337e-01	1.584657e+00	1.672235e+00	-1.962568e+00	-4.196430e+00	-5.981406e+00	-5.258173e+00	-6.517634e+00	-6.046117e+00	-5.775407e+00	-3.518421e+00	-2.840340e+00	-2.291141e-01	2.443195e+00	7.424815e+00	9.918987e+00	1.254157e+01	1.194516e+01	1.134544e+01	7.965730e+00	5.923381e+00	3.301273e+00	3.378268e+00	1.225749e+00	2.563756e-01	-1.902325e+00	-1.132545e+00	-2.394637e+00	-3.203561e+00	-7.383242e+00	-8.220194e+00	-9.385951e+00	-4.406684e+00	-4.176921e+00	-5.453949e-01	-1.314292e+01	-2.205263e+01	1.241841e+02	5.340624e+02	8.978802e+02	6.827461e+02	2.949146e+02	-2.186695e+02	-1.685305e+02	-3.061110e+00	-4.694397e+01	-1.604705e+01	-2.150428e+01	-7.217693e+00	-1.015889e+01	1.467165e+00	3.515505e+00	1.338475e+01	1.107384e+01	1.400626e+01	8.425576e+00	8.117566e+00	1.325841e+00	2.238368e+00	8.644217e-01	8.397491e+00	1.816422e+01	4.270158e+01	6.707109e+01	9.444046e+01	1.133840e+02	1.359067e+02	1.487558e+02	1.620258e+02	1.650845e+02	1.652145e+02	1.470868e+02	1.194627e+02	8.526201e+01	5.605545e+01	2.709338e+01	1.091400e+01	-7.960746e-01	-5.213135e+00	-8.207634e+00	-6.438140e+00	-7.792847e+00	-6.157169e+00	-6.461626e+00	-3.499019e+00	-3.370297e+00	-4.285096e-01	-7.970723e-02	3.302851e+00	4.912602e+00	1.069864e+01	1.228453e+01	1.398332e+01	1.037239e+01	8.308265e+00	2.733816e+00	-1.642114e-01	-4.853115e+00	-5.325760e+00	-8.008040e+00	-7.074114e+00	-8.262597e+00	-6.765861e+00	-7.899552e+00	-4.578081e+00	-2.760318e+00	1.227390e+00	-6.532265e-01	-1.587085e+00	-4.337184e+00	-2.755048e+00	-5.816153e+00	-9.420845e+00	-1.563108e+01	-1.718091e+01	-1.860106e+01	-1.514587e+01	-1.132284e+01	-2.567148e+00	3.200319e+00	8.698129e+00	8.139836e+00	6.693273e+00	1.478064e+00	-3.222985e+00	-7.788376e+00	-1.430646e+01	-1.682415e+01	-3.419267e+01	-4.061162e+01	1.159871e+02	5.200669e+02	9.054316e+02	7.018891e+02	3.454839e+02	-1.653807e+02	-1.312175e+02	2.783853e+01	-1.692732e+01	-3.446201e+00	-1.666221e+01	-1.264455e+01	-2.183411e+01	-2.112741e+01	-2.591637e+01	-2.073954e+01	-1.505508e+01	-3.779764e+00	9.084655e+00	2.064498e+01	2.609531e+01	2.657827e+01	2.370748e+01	2.845175e+01	2.783848e+01
-1.496898e+01	-2.024062e+01	-1.337971e+01	-1.081105e+01	-1.203803e+01	-1.089644e+01	-7.688738e+00	-5.876946e-01	9.779778e+00	2.627151e+01	4.503885e+01	6.256257e+01	7.211366e+01	7.602090e+01	7.818403e+01	8.123210e+01	8.402599e+01	8.618355e+01	8.298420e+01	7.070949e+01	4.959128e+01	2.711840e+01	7.582846e+00	-2.335304e+00	-7.517064e+00	-8.403345e+00	-1.035185e+01	-1.092928e+01	-1.285821e+01	-1.298812e+01	-1.445771e+01	-1.243421e+01	-8.009951e+00	1.992318e+00	1.026293e+01	1.446804e+01	1.109597e+01	7.003896e+00	1.447982e+00	-1.950816e+00	-5.683336e+00	-5.950729e+00	-7.606607e+00	-8.494947e+00	-9.563465e+00	-6.974243e+00	-4.995216e+00	-1.762501e+00	2.731051e-01	4.997435e+00	7.442150e+00	9.305250e+00	6.691923e+00	5.784415e+00	3.833802e+00	5.234141e+00	2.995037e+00	1.236106e+00	-4.644171e+00	-7.800005e+00	-1.216779e+01	-1.215104e+01	-1.387706e+01	-1.167294e+01	-1.157007e+01	-8.513033e+00	-8.600808e+00	-4.196424e+00	-4.845320e-01	7.193427e+00	8.648726e+00	1.034250e+01	7.653400e+00	1.187011e+01	1.410660e+01	1.893702e+01	1.622310e+01	1.460277e+01	7.214777e+00	4.280240e+00	-4.175119e+00	-6.582408e+00	-1.308147e+01	-1.250079e+01	-1.709873e+01	-1.301165e+01	-1.320283e+01	-4.463740e+00	-4.834778e+00	1.114907e+00	-3.300472e+00	1.019506e+00	-6.556467e+00	-2.560247e+00	-8.914485e+00	2.768583e+00	-3.601454e+00	8.268776e+00	-1.539849e+01	3.929935e+01	1.352488e+02	2.549636e+02	3.979721e+02	3.719555e+02	-1.157411e+02	-2.968389e+02	-2.050348e+01	-1.502734e+01	-6.126360e+00	-8.681086e+00	-4.642320e-01	-3.907428e+00	8.628622e-01	-4.929559e+00	-2.035040e+00	-4.505410e+00	5.558033e-01	-3.008586e-01	3.620296e+00	1.988613e+00	3.835102e+00	-1.110150e-02	-1.637904e-01	-3.235631e+00	-6.632244e-01	1.505657e+00	9.657944e+00	1.684226e+01	3.050930e+01	4.884344e+01	6.968361e+01	8.498697e+01	9.136013e+01	8.572089e+01	7.366930e+01	5.307497e+01	3.332767e+01	1.457100e+01	2.932877e-01	-9.966334e+00	-1.592976e+01	-1.791969e+01	-1.640542e+01	-1.386281e+01	-1.076293e+01	-6.570713e+00	-1.303371e+00	3.517297e+00	4.764990e+00	3.047156e+00	1.640988e+00	4.064548e+00	8.454591e+00	1.136329e+01	9.755545e+00	5.820587e+00	6.550777e-01	-1.735573e+00	-2.854637e+00	-4.714743e+00	-9.180909e+00	-1.050341e+01	-9.593442e+00	-6.802693e+00	-6.792796e+00	-4.600835e+00	-1.941752e+00	1.103656e+00	-7.764364e-01	-1.585386e+00	-3.105193e+00	2.287082e-01	3.030409e+00	7.911190e+00	8.659246e+00	9.651334e+00	4.513254e+00	1.001289e+00	-5.535932e+00	-7.173494e+00	-1.275380e+01	-1.383580e+01	-1.567540e+01	-9.140342e+00	-7.032935e+00	-2.391811e+00	-5.005378e+00	-2.507331e+00	-7.021340e+00	-2.751143e+00	-7.451874e+00	-2.925891e-01	-1.381531e+01	6.978259e+01	1.919044e+02	3.754647e+02	5.173695e+02	3.454271e+02	-2.187528e+02	-2.582966e+02	-5.905492e+00	-1.070550e+01	6.723304e+00	3.124500e+00	1.005620e+01	1.150062e+00	-4.120952e-02	-1.033571e+01	-8.226108e+00	-1.092118e+01	-3.881411e+00	-1.312881e+00	7.140729e+00	6.681644e+00	6.552117e+00	-1.598142e-01	5.885150e-01	4.784188e+00	2.271042e+01	4.228571e+01	6.245262e+01	7.429518e+01	8.359507e+01	8.842395e+01	9.384394e+01	9.330004e+01	9.090555e+01	7.845501e+01	6.175314e+01	4.063847e+01	2.307211e+01	7.483997e+00	-3.484989e+00	-9.842180e+00	-1.216213e+01	-1.448474e+01	-1.613342e+01	-1.786668e+01	-1.789729e+01	-1.633882e+01	-1.257913e+01	-8.143249e+00	-4.702491e+00	-2.009090e+00	1.043888e-01	2.072444e+00	4.497228e+00	8.790654e+00	1.141830e+01	1.253766e+01	1.051548e+01	9.895771e+00	7.911190e+00	6.177857e+00	1.387990e+00	-3.022641e+00	-1.015402e+01	-1.299939e+01	-1.583827e+01	-1.353203e+01	-1.299326e+01	-7.245462e+00	-4.335684e+00	1.087746e+00	-6.183349e-01	2.793187e+00	9.729629e-01	4.016666e+00	-2.553651e+00	1.383871e+00	-5.016418e+00	4.272923e+00	-1.273517e+01	3.212362e+01	1.271749e+02	2.409279e+02	3.898913e+02	3.566120e+02	-7.071004e+01	-3.501611e+02	-6.637535e+01	-6.188084e+00	-1.896449e+01	-1.088469e+01	-7.447934e+00	-6.526063e+00	-3.928969e+00	-2.175162e+00	2.783064e+00	3.131298e+00	5.197414e+00	3.985687e+00	3.378815e+00	-1.597044e+00	-3.563323e+00	-5.722486e+00	-3.902092e+00	-1.560407e+00	6.211108e+00	1.642310e+01	3.166998e+01	5.014847e+01	6.949641e+01	8.405240e+01	9.310483e+01	9.662670e+01	9.593287e+01	8.366707e+01	6.155113e+01	3.701808e+01	1.399311e+01	-1.238907e+00	-1.121714e+01	-1.564428e+01	-1.594179e+01	-1.290665e+01	-6.932924e+00	2.185244e+00	1.242017e+01	1.997853e+01	2.080450e+01	1.689887e+01	1.003898e+01	6.061522e+00	3.973140e+00	2.260964e+00	-2.696631e+00	-7.536362e+00	-1.239494e+01	-1.534345e+01	-1.980401e+01	-2.091830e+01	-2.103266e+01	-1.567560e+01	-9.577244e+00	1.221635e+00	8.132792e+00	1.295620e+01	8.875208e+00	6.588102e+00	4.923911e-01	-7.105339e-01	-7.021634e+00	-4.741682e+00	-8.214236e+00	-1.962103e+00	-9.862615e+00	-1.692702e+00	-1.937144e+01	2.095406e+01	1.133022e+02	2.150377e+02	3.757068e+02	4.029559e+02	1.479572e-01	-3.301766e+02	-6.563769e+01	-3.887660e+00	-1.464583e+01	-1.366266e+01	-1.059648e+01	-1.210203e+01	-9.989305e+00	-1.686453e+01	-1.685711e+01	-1.939998e+01	-1.070214e+01	-3.729174e+00	9.273770e+00	1.490539e+01	2.024797e+01	1.615562e+01	1.625726e+01	1.403040e+01	1.977599e+01	2.011408e+01	2.303932e+01	2.124188e+01	2.914418e+01	4.477218e+01	6.883388e+01	8.591678e+01	9.396535e+01	8.301570e+01	6.292773e+01	3.606884e+01	1.293269e+01	-3.277135e+00	-8.479575e+00	-1.447841e+01	-1.554074e+01	-1.924289e+01	-1.886898e+01	-1.976283e+01	-1.458020e+01	-8.543970e+00	2.526873e+00	8.796650e+00	1.533394e+01	1.708163e+01	2.209235e+01	2.558522e+01	2.815842e+01	2.090272e+01	9.657520e+00	-5.802030e+00	-1.364301e+01	-2.059609e+01	-2.280324e+01	-2.733050e+01	-2.702209e+01	-2.704540e+01	-2.070931e+01	-1.538385e+01	-7.720400e+00	-5.065608e+00	6.307551e-01	5.705830e+00	1.485926e+01	1.606018e+01	1.370200e+01	4.100611e+00	-1.861954e+00	-8.214505e+00	-9.259150e+00	-1.317117e+01	-1.293107e+01	-1.249974e+01	-4.494921e+00	2.767445e+00	1.493625e+01	2.061192e+01	2.648311e+01	2.578154e+01	2.824683e+01	2.431850e+01	1.973499e+01	3.886187e+00	-5.153010e+00	-1.369825e+01	-1.279775e+01	-1.948367e+01	-2.105101e+01	-2.695456e+01	-1.629580e+01	-9.524273e+00	1.003027e+01	-2.999507e-01	6.538974e+01	2.001511e+02	3.209889e+02	4.923876e+02	5.016289e+02	1.370690e+01	-3.404325e+02	-8.844440e+01	-1.721402e+01	-3.185761e+01	-2.626152e+01	-2.416101e+01	-1.543491e+01	-4.934561e+00	8.909229e+00	2.387072e+01	3.154916e+01	3.071289e+01	2.375095e+01	1.029110e+01	2.785305e+00	-1.944669e+00	-3.990942e+00	-7.443252e+00	-7.130212e+00	-5.488298e+00	-7.396760e-03	7.413077e+00	2.814529e+01	5.650976e+01	8.137666e+01	9.060734e+01	9.247433e+01	8.941568e+01	8.364454e+01	6.764979e+01	4.851384e+01	2.499096e+01	8.476600e+00	-6.901489e-01	-3.644887e+00	-6.606422e+00	-7.490606e+00	-8.963318e+00	-7.551371e+00	-9.224462e+00	-8.755165e+00	-7.690144e+00	-9.600256e-01	3.399259e+00	7.605103e+00	7.766447e+00	1.139762e+01	1.277816e+01	1.574950e+01	1.228182e+01	9.396738e+00	2.814868e+00	-1.212043e-01	-6.055069e+00	-7.245979e+00	-1.048778e+01	-7.151744e+00	-7.744374e+00	-5.411182e+00	-9.020713e+00	-5.001408e+00	-2.606474e+00	5.991392e+00	4.664152e+00	7.243366e+00	1.120345e+00	2.562281e+00	-9.344275e+00	-1.054343e+01	-2.374071e+01	-1.407911e+01	-3.541930e+01	3.678498e+01	1.344180e+02	2.887110e+02	4.703420e+02	3.895164e+02	-3.169455e+01	-3.174990e+02	-5.677065e+01	2.682310e+00	-1.387001e+01	-1.463838e+01	-2.186182e+01	-2.860395e+01	-2.838756e+01	-2.583861e+01	-1.642433e+01	-9.996162e+00	-9.448501e-01	2.524294e+00	6.746232e+00	6.151234e+00	7.929088e+00	7.320546e+00	1.046223e+01	1.221046e+01	1.619571e+01	1.772322e+01	2.238027e+01	2.594908e+01	3.141686e+01	3.814934e+01	5.187385e+01	6.191350e+01	7.024833e+01	6.501038e+01	5.003960e+01	3.019250e+01	1.432633e+01	1.102075e+00	-8.134377e+00	-1.522946e+01	-1.890408e+01	-2.214598e+01	-2.239048e+01	-2.266023e+01	-1.980250e+01	-1.581102e+01	-8.209185e+00	-1.249073e+00	4.552306e+00	5.920398e+00	5.688127e+00	3.998889e+00	4.249293e+00	5.101638e+00	7.614877e+00	9.160727e+00	8.766729e+00	4.049804e+00	-1.917621e+00	-7.941239e+00	-1.183387e+01	-1.455646e+01	-1.444095e+01	-1.167008e+01	-5.530089e+00	4.570295e-01	4.252862e+00	2.981498e+00	-1.791170e-01	-2.618036e+00	-1.360623e+00	5.484450e-01	6.462943e-01	-3.604457e+00	-8.526022e+00	-1.209749e+01	-1.139099e+01	-8.124614e+00	-2.826162e+00	-5.957892e-02	-4.485496e-01	-3.092645e+00	-3.387134e+00	-2.105440e+00	6.261079e-01	3.802400e+00	9.408926e+00	1.490006e+01	1.778651e+01	1.526739e+01	1.052127e+01	4.517559e+00	1.895337e+00	8.444407e-01	2.188221e+00	2.307160e+00	2.954519e+00	5.104432e-01	-2.799205e+00	-9.701724e+00	-1.304110e+01	-1.306182e+01	-6.075141e+00	4.160132e-01	4.308847e+00	1.293619e+00	-2.404400e+00	-8.194427e+00	-9.731386e+00	-1.005743e+01	-5.012386e+00	-3.578405e+00	-2.761576e-01	-2.048682e+00	4.793664e+00	-2.614320e-01	1.175833e+01	1.116260e+02	2.174323e+02	3.561642e+02	4.514659e+02	1.762863e+02	-3.026923e+02	-1.457162e+02	1.256028e+01	-1.406354e+01	-4.452815e+00	-1.537397e+01	-1.635527e+01	-2.027354e+01	-1.769159e+01	-1.692953e+01	-1.337339e+01	-1.205137e+01	-8.587394e+00	-6.176451e+00	-1.732982e+00	2.973614e+00	9.659560e+00	1.635358e+01	2.114319e+01	2.107182e+01	2.065269e+01	2.288293e+01	2.877169e+01	4.310129e+01	6.142269e+01	7.939318e+01	9.292101e+01	9.574697e+01	9.601327e+01	9.304588e+01	8.280617e+01	6.334517e+01	4.235674e+01	2.183630e+01	7.867273e+00	-3.791373e+00	-1.112657e+01	-1.569765e+01	-1.690714e+01	-1.789845e+01	-1.851156e+01	-1.875004e+01	-1.627910e+01	-1.185673e+01	-4.685743e+00	3.206141e+00	1.242374e+01	2.047370e+01	2.488870e+01	2.294746e+01	1.574829e+01	6.094817e+00	1.188929e+00	2.054632e-01	5.645339e-01	-3.013421e-01	-1.103244e+00	-1.910992e+00	-1.974774e+00	-1.741038e+00	-1.803104e+00	-2.452617e+00	-2.010500e+00	-1.000935e+00	-9.184208e-01	-3.222431e+00	-6.022019e+00	-7.408773e+00	-8.235658e+00	-9.526159e+00	-1.075251e+01	-1.057591e+01	-8.847000e+00	-5.224855e+00	-7.458473e-01	3.887186e+00	7.021620e+00	8.257083e+00	7.699708e+00	5.342008e+00	1.880302e-01	-6.342838e+00	-1.199866e+01	-1.436331e+01	-1.331125e+01	-1.076372e+01	-8.609292e+00	-5.119289e+00	1.242855e+00	1.014358e+01	1.713115e+01	1.909645e+01	1.628689e+01	1.102213e+01	5.406725e+00	3.222925e+00	2.769516e+00	1.989623e+00	-1.254995e+00	-4.139917e+00	-5.983474e+00	-6.509412e+00	-7.992810e+00	-5.838787e+00	-1.030831e+00	4.385892e+00	4.508372e+00	2.063335e+00	-5.367655e-02	1.490975e+00	1.171016e+00	6.331620e-01	-1.951082e+00	-3.626333e+00	-7.430757e+00	-7.734288e+00	-9.318225e+00	-6.612356e+00	-8.205237e+00	-1.888318e+00	-4.239026e+00	1.012840e+01	1.128642e+02	2.552164e+02	4.609933e+02	5.605655e+02	1.946439e+02	-3.103890e+02	-1.637068e+02	5.279406e+00	-1.761001e+01	-8.753440e+00	-1.212294e+01	-9.018434e+00	-9.100216e+00	-7.360084e+00	-6.214514e+00	-2.291827e+00	1.308005e+00	3.366879e+00	3.414664e+00	3.055002e+00	2.928211e+00	2.248886e+00	1.952934e+00	2.569859e+00	6.101529e+00	1.317256e+01	2.517873e+01	4.054763e+01	5.809325e+01	7.137892e+01	8.015661e+01	8.495250e+01	8.765656e+01	8.690357e+01	7.719838e+01	5.709555e+01	3.331390e+01	9.635483e+00	-5.682870e+00	-1.438674e+01	-1.435682e+01	-1.212755e+01	-9.887279e+00	-9.409816e+00	-6.759792e+00	-2.804915e+00	9.713995e-01	1.211940e+00	-1.047005e-01	-2.279681e+00	-3.347741e+00	-4.909010e+00	-4.776686e+00	-3.221952e+00	6.134169e-01	4.220691e+00	8.136851e+00	1.014818e+01	9.593628e+00	4.335166e+00	-7.841357e-01	-3.356179e+00	-2.453406e+00	-2.647813e+00	-4.136965e+00	-7.347955e+00	-8.607683e+00	-7.741486e+00	-3.946924e+00	-9.991858e-01	1.521178e-01	-1.046267e+00	-1.223480e+00	-2.739851e-01	3.328531e+00	5.532267e+00	4.343329e+00	-1.094521e+00	-5.698859e+00	-8.811060e+00	-1.065422e+01	-1.266516e+01	-1.198482e+01	-9.138430e+00	-5.521739e+00	-2.284817e+00	2.144763e+00	6.765667e+00	1.069599e+01	1.268286e+01	1.395716e+01	1.301723e+01	1.019608e+01	6.508928e+00	4.071705e+00	2.539340e+00	1.239736e+00	-1.909965e+00	-6.361637e+00	-1.039847e+01	-1.192047e+01	-1.188590e+01	-1.215052e+01	-1.265888e+01	-1.166701e+01	-9.045646e+00	-3.249145e+00	2.919979e+00	8.639417e+00	8.485571e+00	3.967055e+00	9.546191e+01	1.970376e+02	3.400056e+02	4.326155e+02	1.685934e+02	-3.181665e+02	-2.096760e+02	-1.095391e+01	-3.207380e+01	-1.380307e+01	-1.284460e+01	-1.192393e+00	-2.745910e+00	4.721392e+00	6.567197e+00	1.339537e+01	9.885188e+00	8.901035e+00	3.109808e+00	2.502310e+00	-3.016786e+00	-4.078422e+00	-7.070990e+00	-3.843721e+00	-1.167930e+00	1.023077e+01	2.450691e+01	4.615529e+01	6.308883e+01	7.643495e+01	8.255202e+01	8.991934e+01	9.288884e+01	9.537867e+01	8.996466e+01	7.652840e+01	5.391435e+01	3.393906e+01	1.329088e+01	3.999890e+00	-5.801390e+00	-1.078899e+01	-1.591492e+01	-1.609828e+01	-1.773908e+01	-1.496879e+01	-1.370172e+01	-9.646180e+00	-8.786953e+00	-4.391795e+00	-2.973496e-01	8.066072e+00	1.450953e+01	2.321808e+01	2.498349e+01	2.516746e+01	1.889437e+01	1.228086e+01	3.197926e+00	-2.926690e+00	-1.095227e+01	-1.406087e+01	-1.735662e+01	-1.541822e+01	-1.430829e+01	-9.275629e+00	-5.690880e+00	2.449873e+00	9.409492e+00	1.634589e+01	1.330502e+01	8.690661e+00	2.215776e+00	1.128894e+00	-5.210526e+00	-1.277476e+01	-2.298029e+01	-2.625018e+01	-2.838712e+01	-2.367738e+01	-1.847902e+01	-6.457239e+00	2.406280e+00	1.350014e+01	1.722183e+01	1.954374e+01	1.340147e+01	8.307949e+00	-2.436217e+00	-9.230663e+00	-1.865243e+01	-1.958470e+01	-2.725232e+01	6.663484e+01	1.630869e+02	3.112024e+02	4.309857e+02	2.177311e+02	-2.810740e+02	-1.662727e+02	4.060652e+01	-3.052393e+00	5.971265e+00	-9.635093e+00	-1.025855e+01	-2.204786e+01	-2.415043e+01	-3.239750e+01	-2.980146e+01	-2.686686e+01	-1.127142e+01	2.672519e+00	1.760264e+01	2.296090e+01	2.581013e+01	1.924141e+01	1.995016e+01	7.669807e-01
-1.160655e+00	1.624955e+01	8.533650e+00	6.139624e+00	3.945870e+00	1.632288e+00	-1.109875e+00	-6.182964e+00	-1.867047e+01	-3.538475e+01	-5.152510e+01	-6.675539e+01	-8.045630e+01	-9.552328e+01	-1.053925e+02	-1.077065e+02	-1.018083e+02	-9.259372e+01	-7.720986e+01	-6.163409e+01	-4.517789e+01	-3.113530e+01	-1.930600e+01	-1.113196e+01	-4.793913e+00	-3.407784e+00	-4.722632e-01	9.634668e-01	3.312781e+00	3.015414e+00	4.472281e+00	3.496092e+00	2.460558e+00	-1.889616e+00	-3.748398e+00	-5.833500e+00	-4.277397e+00	-3.910880e+00	-1.140273e+00	-5.479528e-01	1.642493e+00	1.620314e+00	4.264023e+00	5.693733e+00	9.830258e+00	1.215574e+01	1.574353e+01	1.495174e+01	1.393902e+01	9.049139e+00	6.885702e+00	2.247403e+00	7.613054e-01	-3.318678e+00	-3.304082e+00	-5.703092e+00	-4.252541e+00	-5.512177e+00	-2.167098e+00	-1.339970e+00	2.629406e+00	1.864832e+00	4.082477e+00	2.061383e+00	2.752361e+00	-7.700932e-01	4.250080e-01	-2.223576e+00	-1.580331e+00	-5.365645e+00	-3.511792e+00	-5.465344e+00	-3.285257e+00	-6.493468e+00	-3.984809e+00	-5.754303e+00	-2.213280e+00	-4.546641e+00	-1.123600e+00	-3.029823e+00	1.596365e+00	8.198420e-01	7.243561e+00	6.327995e+00	1.118172e+01	6.748685e+00	9.332361e+00	2.480369e+00	4.709350e+00	-2.226195e+00	2.120072e+00	-4.598406e+00	1.546976e+00	-5.551547e+00	1.906885e+00	-9.339912e+00	6.772176e-01	-1.174042e+01	2.767848e+01	-1.205705e+01	-2.468926e+02	-6.783153e+02	-6.075597e+02	-3.090961e+02	-5.269524e+01	9.108866e+01	-4.920629e+00	1.219221e+01	2.819502e+00	1.225332e+01	3.464428e+00	7.215575e+00	-3.433677e-01	4.590115e+00	2.465261e+00	8.181960e+00	4.873445e+00	5.287144e+00	-6.246844e-01	4.160430e-02	-2.893958e+00	-1.234693e+00	-4.624205e+00	-4.721960e+00	-1.251622e+01	-2.326978e+01	-4.066760e+01	-5.532721e+01	-7.061521e+01	-8.399765e+01	-9.890056e+01	-1.068103e+02	-1.080757e+02	-9.913490e+01	-8.696495e+01	-6.671091e+01	-4.766953e+01	-2.924573e+01	-1.506813e+01	-6.380241e+00	-3.390619e+00	-1.503038e+00	-5.563684e-01	8.895908e-01	1.629751e+00	1.413575e+00	-6.241272e-02	-1.047903e+00	-8.272590e-01	1.010097e+00	2.669531e+00	3.017312e+00	2.273599e+00	8.587255e-01	-1.148793e-01	-5.689944e-01	5.625684e-01	1.045021e+00	1.057832e+00	-1.133467e-01	9.170799e-01	1.209019e+00	2.479498e+00	2.940394e+00	5.771534e+00	5.996781e+00	6.150903e+00	4.356643e+00	4.401481e+00	2.847964e+00	2.054964e+00	-1.919525e+00	-3.927182e+00	-7.118358e+00	-6.793173e+00	-8.177457e+00	-5.806164e+00	-5.465993e+00	-2.129831e+00	-1.839440e+00	2.699026e+00	3.744436e+00	5.871320e+00	1.862819e+00	2.171170e+00	-1.169786e+00	4.327491e-01	-2.735205e+00	-1.962204e-02	-1.847595e+00	3.689943e+00	8.333029e+00	3.543915e+01	-4.860332e+01	-3.486828e+02	-7.276656e+02	-5.367630e+02	-2.693893e+02	-3.247742e+00	7.549338e+01	-5.710927e+00	1.568970e+01	3.143767e+00	1.144664e+01	3.262518e+00	9.899352e+00	6.256091e+00	1.241986e+01	7.937502e+00	8.188483e+00	-6.608325e-01	-4.482224e+00	-1.292389e+01	-1.481005e+01	-1.839249e+01	-1.605807e+01	-1.961400e+01	-2.372255e+01	-3.715540e+01	-5.115296e+01	-6.611306e+01	-7.943069e+01	-9.583459e+01	-1.068495e+02	-1.174300e+02	-1.205618e+02	-1.196084e+02	-1.085969e+02	-9.046941e+01	-6.799367e+01	-4.609527e+01	-2.597166e+01	-1.093832e+01	-1.566079e+00	3.205410e+00	5.148219e+00	6.804235e+00	7.396284e+00	8.366932e+00	6.326909e+00	3.176552e+00	-1.801143e+00	-4.130870e+00	-5.994044e+00	-4.389240e+00	-3.482050e+00	-5.961880e-01	6.846096e-01	4.764768e+00	5.737676e+00	5.782778e+00	1.310736e+00	-7.744957e-03	-3.264601e+00	-2.096183e+00	-3.664474e+00	-1.618875e+00	-5.089950e+00	-4.757986e+00	-8.249863e+00	-4.287743e+00	-4.048484e+00	3.268924e+00	2.800762e+00	8.254174e+00	4.484055e+00	9.994255e+00	4.555940e+00	9.472905e+00	-8.443383e-01	6.125335e+00	-3.005040e+00	2.388204e+01	-1.846595e+01	-2.131382e+02	-6.467947e+02	-6.468287e+02	-3.247747e+02	-1.108555e+02	1.071557e+02	1.590011e+01	2.048395e+01	2.058694e+01	2.024672e+01	1.598594e+01	1.454326e+01	8.339164e+00	6.429890e+00	-1.657729e-01	-1.578117e+00	-6.907680e+00	-6.942332e+00	-9.860935e+00	-8.482685e+00	-1.172915e+01	-1.279943e+01	-1.930559e+01	-2.339909e+01	-3.372002e+01	-4.461160e+01	-5.751346e+01	-6.807651e+01	-8.235483e+01	-9.628800e+01	-1.085670e+02	-1.153384e+02	-1.143022e+02	-1.018997e+02	-8.544216e+01	-6.465301e+01	-4.557011e+01	-2.808527e+01	-1.519490e+01	-6.211576e+00	-2.004149e+00	9.942597e-01	3.195564e+00	5.094915e+00	6.509818e+00	6.356019e+00	6.024477e+00	5.505944e+00	5.747529e+00	3.790353e+00	2.217544e+00	-8.888415e-01	-1.966615e+00	-4.352080e+00	-2.941238e+00	-1.622201e+00	3.802540e+00	5.991940e+00	9.753398e+00	9.049625e+00	1.038446e+01	7.859317e+00	9.694083e+00	5.913800e+00	5.716385e+00	-3.078768e+00	-4.375158e+00	-1.215957e+01	-8.018468e+00	-1.409247e+01	-6.526334e+00	-1.348219e+01	5.902303e-01	-7.826232e+00	3.304787e+01	7.193257e+00	-1.732297e+02	-6.077814e+02	-6.403755e+02	-3.132230e+02	-1.173068e+02	1.038539e+02	8.597298e+00	1.021880e+01	8.049197e-01	7.958569e+00	-1.618498e+00	6.812944e+00	8.308387e-01	9.950452e+00	6.550197e+00	1.479809e+01	1.004128e+01	1.216283e+01	3.293109e+00	2.970241e+00	-7.182023e+00	-1.331768e+01	-2.999051e+01	-3.882555e+01	-5.510513e+01	-6.001553e+01	-7.066105e+01	-7.261366e+01	-8.454596e+01	-9.161902e+01	-1.046623e+02	-1.065043e+02	-1.056024e+02	-8.990306e+01	-7.521635e+01	-5.259943e+01	-3.876991e+01	-2.258122e+01	-2.051271e+01	-1.296215e+01	-1.261758e+01	-4.949594e+00	-3.985681e+00	3.371156e+00	2.444455e+00	5.861793e+00	2.040899e+00	4.797554e+00	1.395123e+00	3.513935e+00	-2.338575e+00	-3.136463e+00	-9.557621e+00	-7.210866e+00	-8.333339e+00	-2.247154e+00	-2.156732e+00	3.485575e+00	2.574444e+00	6.444136e+00	3.746174e+00	6.794336e+00	3.188388e+00	5.652808e+00	2.804196e+00	6.527997e+00	3.637729e+00	5.517159e+00	2.331728e-01	1.818508e+00	-1.323145e+00	3.576103e+00	1.991988e+00	5.770477e+00	1.605983e+00	2.980847e+00	-3.329486e+00	-2.624955e+00	-7.394884e+00	-3.723650e+00	-7.609490e+00	-4.154102e+00	-6.974123e+00	-9.799297e-04	-1.323435e+00	4.077456e+00	-4.698904e-01	4.207708e+00	-1.215980e+00	3.186562e+00	-3.170619e+00	3.283200e+00	-2.195841e+00	4.564163e+00	-6.124840e+00	8.638574e-01	-1.051115e+01	1.005012e+01	-1.906460e+01	-1.960603e+02	-6.117817e+02	-6.884975e+02	-3.751413e+02	-1.206918e+02	9.115345e+01	1.711898e+01	8.383920e+00	1.291912e+01	1.383847e+01	1.152371e+01	8.278666e+00	5.257370e+00	4.371794e+00	2.450292e+00	-1.396742e-01	-2.175643e+00	-1.478231e+00	1.783687e+00	4.625665e+00	5.060291e+00	2.390196e+00	-3.860282e-01	-4.826461e+00	-9.416351e+00	-2.017005e+01	-3.328261e+01	-5.454344e+01	-7.355357e+01	-9.071727e+01	-1.009106e+02	-1.046536e+02	-1.017694e+02	-9.402830e+01	-8.053269e+01	-6.498474e+01	-4.713536e+01	-3.189634e+01	-1.873506e+01	-1.226208e+01	-5.631794e+00	-2.775669e+00	2.406479e+00	1.517805e+00	3.370588e+00	1.349972e+00	2.382580e+00	-2.342881e+00	-3.806926e+00	-8.404612e+00	-7.862304e+00	-1.074503e+01	-8.149344e+00	-9.206318e+00	-4.671588e+00	-6.172256e+00	-3.315409e+00	-5.535186e+00	-7.030768e-01	-1.635409e+00	3.215448e+00	8.612619e-01	5.748101e+00	2.894932e+00	7.355638e+00	3.288251e+00	8.298822e+00	3.688633e+00	1.041715e+01	7.257282e+00	1.637592e+01	1.110993e+01	1.906364e+01	8.945180e+00	1.983835e+01	7.079362e+00	4.379366e+01	-1.144136e+01	-2.039960e+02	-6.400972e+02	-6.393557e+02	-3.202281e+02	-1.044494e+02	8.970837e+01	3.437469e+00	9.019981e+00	1.460727e+00	1.241399e+01	5.450091e+00	1.192255e+01	2.973667e+00	6.087736e+00	-2.985643e+00	-1.859799e+00	-1.138407e+01	-1.150777e+01	-2.014701e+01	-1.870185e+01	-2.345869e+01	-2.172477e+01	-2.902531e+01	-3.527518e+01	-4.888926e+01	-5.619147e+01	-7.058963e+01	-8.120326e+01	-9.907664e+01	-1.067085e+02	-1.162109e+02	-1.191439e+02	-1.224087e+02	-1.111502e+02	-9.594077e+01	-7.416637e+01	-5.583508e+01	-3.553195e+01	-2.258041e+01	-1.037105e+01	-5.587829e+00	8.573108e-02	2.639874e+00	6.306794e+00	5.834935e+00	7.000987e+00	5.199908e+00	4.952093e+00	2.190104e+00	2.473383e+00	6.889965e-01	4.762267e-01	-2.920897e+00	-3.136127e+00	-4.416235e+00	-2.645140e+00	-2.724309e+00	2.356474e-01	1.327012e+00	3.883986e+00	4.020750e+00	6.042629e+00	4.680924e+00	3.665819e+00	7.781814e-02	-2.906576e-01	-1.484644e+00	5.106325e-01	6.465659e-02	1.099253e+00	-1.307642e+00	-1.360484e+00	-2.952617e+00	-1.167618e+00	-1.043474e+00	2.104624e+00	3.821993e+00	7.036404e+00	6.029856e+00	5.187493e+00	2.289613e+00	1.367391e+00	-1.176975e+00	-1.143840e+00	-1.762677e+00	-4.579877e-01	-1.723971e+00	-1.409438e+00	-2.364184e+00	-6.670724e-01	-5.615242e-01	1.613630e+00	1.361345e+00	2.534184e+00	8.991392e-01	1.024591e+00	-1.440393e+00	-1.988155e+00	-4.992832e+00	-4.599717e+00	-5.581563e+00	-3.030871e+00	-3.283014e+00	-1.251122e-01	1.670948e-01	3.454205e+00	2.381226e+00	5.384609e+00	4.511229e+00	6.625825e+00	6.814494e-01	-7.058923e-01	-8.030910e+00	-4.746551e+00	-8.769024e+00	5.461928e+00	9.049519e+00	-1.033724e+02	-4.785752e+02	-7.351764e+02	-4.533407e+02	-1.955340e+02	6.592578e+01	4.473828e+01	-3.245477e+00	9.558359e+00	1.908735e+00	4.417312e+00	2.475872e-01	1.557250e+00	8.744358e-01	4.113977e+00	4.852352e+00	8.429558e+00	9.606566e+00	1.150515e+01	8.939440e+00	6.805945e+00	2.287782e+00	-2.323383e+00	-1.238628e+01	-2.519877e+01	-3.972925e+01	-5.247582e+01	-6.437448e+01	-7.650863e+01	-9.115723e+01	-1.035426e+02	-1.120091e+02	-1.108145e+02	-1.053315e+02	-9.633793e+01	-8.068172e+01	-5.994153e+01	-4.000384e+01	-2.208062e+01	-1.190344e+01	-5.968626e+00	-3.109131e+00	-1.678097e+00	-3.589734e+00	-4.714776e+00	-4.270723e+00	-2.212905e+00	-7.801881e-01	1.153838e-01	-1.016518e-01	-9.906201e-01	-1.900499e+00	-1.996817e+00	-2.561423e+00	-2.667117e+00	-9.623157e-01	3.046413e+00	5.509491e+00	5.460502e+00	4.026940e+00	2.833898e+00	1.774628e+00	6.119195e-01	-1.323354e+00	-2.869378e+00	-3.021233e+00	-1.832870e+00	-1.055376e+00	-1.116383e+00	-7.847064e-01	5.536226e-01	2.446795e+00	4.776152e+00	6.107904e+00	6.399026e+00	5.763394e+00	4.854623e+00	3.806137e+00	2.262706e+00	2.542249e-01	-2.053469e+00	-3.905911e+00	-5.621297e+00	-6.457693e+00	-6.094786e+00	-3.998384e+00	-1.467081e+00	1.362106e+00	3.457251e+00	4.593022e+00	4.728562e+00	5.550022e+00	5.843563e+00	4.242523e+00	1.345902e+00	-1.140245e+00	-3.232735e+00	-4.975404e+00	-5.339073e+00	-3.796748e+00	-2.385935e+00	-1.830610e+00	-9.901797e-01	1.519561e+00	3.962808e+00	5.332781e+00	5.138903e+00	4.897534e+00	4.507135e+00	4.370485e+00	2.158246e+00	6.243852e-01	-1.775854e+00	-3.447270e+00	-6.160111e+00	-5.751704e+00	-5.217217e+00	-3.183962e+00	-4.062339e+00	-1.944291e+00	-1.805839e+00	1.600591e+00	-1.624157e+00	6.457894e-01	-3.578617e+00	8.765923e+00	1.414665e+01	-7.958311e+01	-4.387264e+02	-7.167584e+02	-4.538930e+02	-1.882332e+02	6.741968e+01	4.386994e+01	-1.423850e+00	1.500713e+01	1.075515e+01	1.509896e+01	1.192878e+01	9.814095e+00	5.601006e+00	3.397867e+00	1.691587e+00	-2.552296e-02	-1.361503e+00	-2.807248e+00	-3.359913e+00	-5.843893e+00	-8.700925e+00	-1.419092e+01	-2.053793e+01	-2.985981e+01	-4.239185e+01	-5.813345e+01	-7.285577e+01	-8.990750e+01	-1.032819e+02	-1.119464e+02	-1.152374e+02	-1.166490e+02	-1.114350e+02	-1.003804e+02	-8.179175e+01	-6.135228e+01	-4.001428e+01	-2.163008e+01	-7.724027e+00	-1.185882e+00	2.882122e+00	5.408084e+00	7.630308e+00	5.956511e+00	3.345120e+00	3.757295e-01	3.943047e-01	-5.728866e-01	-9.582086e-01	-2.845502e+00	-3.036070e+00	-4.543612e+00	-4.961885e+00	-6.185624e+00	-5.000536e+00	-4.206479e+00	-2.465310e+00	-2.020223e+00	5.671726e-02	1.982328e+00	4.133414e+00	4.349211e+00	4.708114e+00	5.197037e+00	6.872959e+00	7.303612e+00	6.616653e+00	3.425325e+00	1.703431e+00	4.928650e-01	1.695455e+00	1.517157e+00	1.715727e+00	4.083865e-01	4.342576e-01	-2.282724e-01	1.102464e+00	1.274769e+00	1.863601e+00	2.104406e-01	4.672669e-01	1.218271e-01	1.230798e+00	4.945002e-01	1.527600e+00	9.887160e-01	7.465845e-01	-2.562990e+00	-4.224459e+00	-6.281683e+00	-5.767043e+00	-6.286011e+00	-4.266786e+00	-3.487867e+00	-1.512290e+00	-2.333948e+00	-1.207375e+00	-2.385869e+00	-1.946184e+00	-3.818009e+00	-2.386807e+00	-2.199191e+00	1.903527e+00	2.703190e+00	5.400905e+00	2.288611e+00	5.422438e+00	3.652318e+00	1.902452e+01	2.728570e+01	-7.802779e+01	-4.370068e+02	-7.290538e+02	-4.673275e+02	-2.095381e+02	5.952200e+01	6.525970e+01	1.681438e+00	2.716532e+01	1.171650e+01	1.807651e+01	8.754124e+00	1.031696e+01	2.107758e+00	7.467157e-01	-5.297562e+00	-4.697570e+00	-7.756865e+00	-5.026347e+00	-4.998574e+00	-1.049753e+00	-2.350985e+00	-2.261990e+00	-8.419548e+00	-1.841078e+01	-3.494326e+01	-5.056742e+01	-6.678512e+01	-7.958887e+01	-9.562509e+01	-1.055925e+02	-1.147197e+02	-1.169284e+02	-1.131774e+02	-9.851155e+01	-7.948954e+01	-5.568590e+01	-3.646567e+01	-1.798734e+01	-7.899787e+00	-4.199445e-01	1.057342e+00	2.098209e+00	3.338035e-02	1.015275e+00	4.533208e-01	1.408550e+00	-6.585290e-02	3.460136e-01	-6.761052e-01	7.210832e-01	6.947009e-01	1.765286e+00	-5.789182e-01	-1.162911e+00	-2.628344e+00	-1.379703e+00	-2.115860e+00	-5.761418e-01	-7.679586e-01	2.853309e-01	-9.889421e-01	1.641242e-01	-2.101211e-01	1.702011e+00	2.182191e+00	4.874772e+00	4.683210e+00	5.635620e+00	4.311797e+00	5.067406e+00	3.799570e+00	4.036798e+00	1.619887e+00	2.143299e+00	2.130044e+00	4.401382e+00	3.701997e+00	4.545469e+00	2.896941e+00	1.918359e+00	-1.995399e+00	-3.136996e+00	-4.348629e+00	-2.182952e+00	-7.349895e-01	2.391443e+00	4.245532e+00	5.579584e+00	7.998063e+00	8.380773e+00	2.006864e+01	2.674529e+01	-8.354222e+01	-4.413529e+02	-7.517037e+02	-4.876589e+02	-2.393250e+02	2.078856e+01	5.044255e+01	-8.642907e+00	1.365934e+01	6.133141e+00	1.367747e+01	8.957428e+00	1.293050e+01	1.114100e+01	1.234874e+01	8.451668e+00	4.648397e+00	1.097089e-01	-5.407211e+00	-9.283932e+00	-1.193307e+01	-1.126537e+01	-1.169629e+01	-1.488656e+01	-2.203279e+01
1.057652e+01	5.946231e+00	4.570623e+00	4.105538e+00	6.722875e+00	7.421488e+00	6.485559e+00	3.391519e+00	4.860924e-01	-3.883700e+00	-8.217110e+00	-1.055388e+01	-8.395014e+00	-5.017514e+00	-3.012148e+00	-5.248945e+00	-1.018067e+01	-1.554530e+01	-1.796066e+01	-1.714356e+01	-1.167399e+01	-3.892035e+00	4.051380e+00	8.045409e+00	9.349429e+00	8.856529e+00	8.933774e+00	8.196619e+00	8.531214e+00	8.953291e+00	9.288508e+00	8.144361e+00	5.680545e+00	-1.219674e-01	-5.974037e+00	-8.168845e+00	-5.752549e+00	-3.067789e+00	-2.105623e-01	2.083719e+00	4.115307e+00	4.128893e+00	3.867228e+00	3.622437e+00	2.442701e+00	-1.371029e+00	-5.541612e+00	-7.692946e+00	-8.762758e+00	-1.035813e+01	-1.108270e+01	-9.610992e+00	-5.859632e+00	-2.582398e+00	-8.375253e-01	-9.988787e-01	1.538522e-01	2.154602e+00	5.181032e+00	6.935831e+00	8.532775e+00	8.670374e+00	8.895083e+00	8.105150e+00	7.877049e+00	7.167415e+00	6.935232e+00	4.704974e+00	1.643546e+00	-2.660128e+00	-4.844607e+00	-5.426260e+00	-3.972129e+00	-5.339062e+00	-8.802705e+00	-1.267443e+01	-1.171752e+01	-9.344497e+00	-5.136995e+00	-1.995551e+00	2.615632e+00	4.799876e+00	6.709247e+00	6.373816e+00	8.252470e+00	7.607394e+00	6.740166e+00	2.462385e+00	1.729377e+00	3.205958e-01	2.301328e+00	1.804626e+00	5.257334e+00	5.239845e+00	7.352851e+00	3.206381e+00	4.346993e+00	-1.950371e+00	8.645731e-01	-2.415000e+01	1.681885e+01	1.474879e+02	3.118143e+00	-1.268427e+02	1.132487e+02	1.729543e+02	1.625691e+01	4.629624e+00	1.306549e+00	-5.476353e-01	-3.609933e+00	-2.635097e+00	-2.909143e+00	-6.225402e-01	-1.929397e+00	-3.382501e+00	-6.071036e+00	-4.841889e+00	-4.513935e+00	-3.476598e+00	-3.731287e+00	-1.534729e+00	5.084094e-01	3.429359e+00	4.490483e+00	5.841556e+00	6.116981e+00	6.697222e+00	5.035979e+00	2.001247e+00	-4.920938e+00	-1.236183e+01	-1.600493e+01	-1.411306e+01	-1.093526e+01	-7.592138e+00	-4.690974e+00	-5.727697e-01	4.144065e+00	9.440589e+00	1.296035e+01	1.360829e+01	1.163083e+01	8.892141e+00	6.046438e+00	3.036858e+00	-3.653891e-01	-3.901243e+00	-5.177803e+00	-4.340566e+00	-3.899096e+00	-6.252787e+00	-9.756576e+00	-1.101984e+01	-8.757010e+00	-4.760086e+00	-1.103756e+00	7.684894e-01	1.845547e+00	3.947323e+00	7.073400e+00	8.158503e+00	6.339064e+00	3.714267e+00	2.363763e+00	4.226188e-01	-2.152475e+00	-3.935392e+00	-2.400527e+00	-6.705795e-01	1.245564e+00	1.106564e+00	5.302177e-01	-1.638999e+00	-2.120176e+00	-2.312710e+00	2.694961e-01	3.004837e+00	6.753474e+00	7.628068e+00	9.258735e+00	9.309965e+00	9.690021e+00	6.604067e+00	5.010502e+00	2.795414e+00	4.263534e+00	3.930066e+00	6.522938e+00	4.280157e+00	4.905768e+00	-2.992518e+00	-7.181836e-01	-2.421890e+01	3.052894e+01	8.527951e+01	-1.193320e+02	-1.198979e+02	1.665383e+02	1.596316e+02	1.066041e+01	-3.256918e+00	-8.623332e+00	-9.532329e+00	-1.111752e+01	-7.051212e+00	-4.003403e+00	1.237370e+00	1.622940e+00	3.739987e+00	3.348845e+00	4.024973e+00	1.413732e+00	2.001035e+00	3.193765e+00	7.296912e+00	8.004719e+00	6.022462e+00	-1.216728e+00	-7.821066e+00	-1.284547e+01	-1.291289e+01	-1.290349e+01	-1.140394e+01	-1.107150e+01	-8.950647e+00	-6.729374e+00	-2.714487e+00	-7.938072e-01	5.247508e-01	1.020631e+00	4.073029e+00	6.552789e+00	7.960342e+00	6.896230e+00	7.642993e+00	8.243811e+00	9.130146e+00	8.519334e+00	8.680285e+00	7.233439e+00	6.263093e+00	5.219675e+00	4.557311e+00	2.020651e+00	-1.806551e-01	-3.564431e+00	-8.617392e+00	-1.442623e+01	-1.563343e+01	-1.372989e+01	-9.916452e+00	-6.737405e+00	-3.163628e+00	1.936841e-01	4.810425e+00	9.799280e+00	1.473393e+01	1.724423e+01	1.736153e+01	1.434676e+01	9.206943e+00	2.354288e+00	-2.225421e+00	-3.585193e+00	-3.783243e+00	-5.970924e+00	-5.733673e+00	-2.688113e+00	4.004348e-01	1.957277e+00	2.642407e-01	5.476596e-01	-1.797199e+01	6.603773e+00	1.485232e+02	3.756047e+01	-1.007436e+02	1.104894e+02	2.087294e+02	4.070181e+01	-3.867711e+00	5.276911e+00	-2.761934e+00	-2.387561e+00	-3.805093e+00	-1.715059e+00	-3.114627e+00	-2.544009e+00	-2.230654e+00	-3.631649e-01	1.242135e-01	2.381253e+00	4.783291e+00	7.991610e+00	9.408473e+00	1.087169e+01	1.016747e+01	8.314795e+00	4.034957e+00	-1.646686e-03	-5.356185e+00	-1.011165e+01	-1.511890e+01	-1.784692e+01	-1.962903e+01	-1.769128e+01	-1.266115e+01	-4.820260e+00	1.325045e+00	6.802009e+00	1.082379e+01	1.437826e+01	1.442652e+01	1.244108e+01	8.172392e+00	2.567117e+00	-7.521561e+00	-1.747110e+01	-2.304696e+01	-2.318503e+01	-2.050000e+01	-1.461387e+01	-9.346017e+00	-5.532319e+00	-2.321272e+00	3.059091e+00	8.106459e+00	1.176009e+01	1.291028e+01	1.399715e+01	1.319701e+01	1.139789e+01	6.992461e+00	1.924129e+00	-6.583070e+00	-1.432913e+01	-1.704864e+01	-1.211096e+01	-5.056182e+00	1.904274e+00	6.269155e+00	9.851089e+00	1.028761e+01	1.025214e+01	7.805888e+00	7.781337e+00	2.167340e+00	-2.516101e-01	-2.487897e+01	2.739320e+00	1.466844e+02	3.162197e+01	-1.404288e+02	5.609891e+01	1.940005e+02	4.153158e+01	-5.501912e+00	5.620214e+00	3.991153e+00	4.983380e+00	1.988515e+00	2.093999e+00	3.501322e+00	4.681654e+00	2.328336e+00	-2.904595e+00	-1.085534e+01	-1.794813e+01	-2.140020e+01	-2.040071e+01	-1.454238e+01	-6.436479e+00	-1.380281e+00	5.085117e-01	1.802844e+00	4.117572e+00	6.202199e+00	6.293600e+00	2.246719e+00	-7.165333e+00	-1.810038e+01	-2.326280e+01	-2.180512e+01	-1.561424e+01	-7.036127e+00	1.268988e+00	7.135910e+00	1.091493e+01	1.300598e+01	1.407572e+01	1.345383e+01	1.199995e+01	9.506008e+00	5.721945e+00	-6.939234e-01	-8.769734e+00	-1.641574e+01	-1.962844e+01	-2.028101e+01	-2.018486e+01	-2.116087e+01	-2.018940e+01	-1.505359e+01	-4.533541e+00	4.782375e+00	1.081033e+01	1.386114e+01	1.659353e+01	1.866081e+01	1.971298e+01	1.831503e+01	1.480681e+01	9.508282e+00	4.798309e+00	7.332744e-01	-2.439256e+00	-8.044830e+00	-1.359164e+01	-1.518729e+01	-1.144345e+01	-5.973850e+00	-1.761786e-01	3.579222e+00	6.557258e+00	9.030051e+00	1.247726e+01	1.223365e+01	7.952655e+00	1.641040e-01	-7.592975e+00	-1.473594e+01	-1.858469e+01	-2.121756e+01	-2.296210e+01	-2.301566e+01	-1.754440e+01	-6.930488e+00	3.643469e+00	8.267882e+00	1.045460e+01	1.255675e+01	1.700372e+01	1.851007e+01	1.548073e+01	6.920391e+00	-4.017947e+00	-1.562468e+01	-3.898637e+01	-5.483502e+01	6.261577e+01	-2.704508e+01	-1.906595e+02	4.791104e+01	2.064530e+02	5.632066e+01	6.541604e+00	1.510802e+01	1.215650e+01	1.149832e+01	5.989038e+00	-7.053118e-01	-1.233610e+01	-2.197942e+01	-2.694207e+01	-2.439414e+01	-1.898819e+01	-1.161593e+01	-7.041003e+00	-3.542087e+00	-3.025268e-03	4.934887e+00	7.541624e+00	8.231459e+00	7.635955e+00	6.865040e+00	2.261056e+00	-6.201236e+00	-1.556349e+01	-1.906504e+01	-1.840564e+01	-1.603942e+01	-1.333786e+01	-9.221439e+00	-4.145836e+00	1.290652e+00	5.636249e+00	7.977898e+00	8.200303e+00	7.391115e+00	6.220534e+00	4.765740e+00	3.754675e+00	4.410166e+00	5.267693e+00	4.094274e+00	1.097831e+00	-1.069256e+00	-1.576613e+00	-1.681938e+00	-2.651005e+00	-4.815711e+00	-6.705586e+00	-6.233693e+00	-3.255623e+00	7.970910e-01	4.321016e+00	6.803712e+00	8.218236e+00	8.643809e+00	7.336474e+00	5.243035e+00	4.599138e+00	5.552228e+00	4.484012e+00	-1.103678e-01	-5.291856e+00	-7.879645e+00	-8.970253e+00	-9.096089e+00	-7.029847e+00	-1.027578e+00	5.730110e+00	1.139529e+01	9.027702e+00	5.919501e+00	-1.614976e+01	1.675377e+00	1.043994e+02	-3.629633e+01	-1.332030e+02	7.401630e+01	1.900179e+02	3.933032e+01	-1.032044e+01	4.253512e+00	-2.336952e-01	7.950533e+00	9.645330e+00	1.336927e+01	9.340436e+00	6.381251e+00	5.573906e-01	-2.570494e+00	-6.066595e+00	-5.992335e+00	-6.930581e+00	-6.234650e+00	-7.090976e+00	-6.468621e+00	-6.719233e+00	-4.626697e+00	-3.335962e+00	-6.087786e-01	1.106023e+00	3.881553e+00	4.384532e+00	4.299138e+00	1.358625e+00	-1.033393e+00	-3.297816e+00	-2.721922e+00	-1.771271e+00	9.522704e-01	3.483865e+00	6.557187e+00	8.296545e+00	9.797265e+00	9.683498e+00	8.711612e+00	6.877801e+00	5.461582e+00	2.043594e+00	-3.513550e+00	-9.705231e+00	-1.259856e+01	-1.290301e+01	-1.055050e+01	-7.896860e+00	-5.488075e+00	-5.416763e+00	-6.122097e+00	-7.881582e+00	-7.231671e+00	-4.443811e+00	5.491401e-01	4.412451e+00	7.478992e+00	8.730776e+00	9.482598e+00	8.212474e+00	5.678334e+00	1.068353e+00	-1.819071e+00	-2.235230e+00	3.484786e-01	1.879433e+00	2.302938e+00	9.496916e-01	1.971629e+00	4.683701e+00	8.618391e+00	9.598091e+00	7.922575e+00	3.352448e+00	-8.749649e-01	-2.859742e+00	-7.373824e-01	2.138633e+00	3.926820e+00	2.790017e+00	9.423596e-01	-2.404973e+00	-6.478851e+00	-1.153587e+01	-1.343152e+01	-1.223427e+01	-8.205583e+00	-4.498196e+00	-2.062311e+00	-1.871259e+00	-2.058397e+00	-2.071868e+00	-1.071956e+00	1.248496e+00	5.746465e+00	1.116131e+01	1.474828e+01	1.352896e+01	7.942466e+00	6.458942e-01	-3.590957e+00	-3.490153e+00	1.178916e-01	3.132193e+00	5.187745e+00	4.176256e+00	3.425840e+00	2.657809e+00	4.534733e+00	4.089370e+00	1.599289e+00	-6.611840e+00	-1.547045e+01	-3.394645e+01	7.269454e+01	9.862549e+01	-1.144296e+02	-3.287134e+01	1.927358e+02	8.259679e+01	-9.966479e+00	3.370943e+00	1.434528e+00	9.042271e+00	1.228230e+01	1.501583e+01	1.278328e+01	1.068715e+01	7.311094e+00	4.397152e+00	5.646875e-01	-2.007208e+00	-4.949280e+00	-7.452504e+00	-1.081663e+01	-1.250705e+01	-1.104061e+01	-5.589441e+00	2.156876e-01	4.078896e+00	4.714256e+00	3.627054e+00	1.003142e-02	-6.827681e+00	-1.471641e+01	-1.896120e+01	-2.069809e+01	-2.021526e+01	-1.754481e+01	-1.346239e+01	-9.842939e+00	-5.343403e+00	6.396221e-01	6.929048e+00	1.108968e+01	1.405066e+01	1.640513e+01	1.801453e+01	1.839418e+01	1.728621e+01	1.411911e+01	9.832644e+00	4.689815e+00	-7.921440e-01	-8.243625e+00	-1.506019e+01	-1.863633e+01	-1.696328e+01	-1.203311e+01	-6.418021e+00	-3.815566e+00	-2.617776e+00	-1.844213e+00	-6.722386e-01	6.302815e-02	1.259926e+00	2.555939e+00	3.685226e+00	3.869820e+00	3.551596e+00	2.308767e+00	1.126502e+00	6.169567e-01	1.629054e+00	2.430837e+00	2.496902e+00	2.386849e+00	3.590227e+00	5.139887e+00	5.581948e+00	4.713008e+00	2.873121e+00	2.942012e-01	-2.243235e+00	-3.698016e+00	-3.622608e+00	-2.770747e+00	-9.087875e-01	1.838409e+00	5.788491e+00	8.736977e+00	9.574685e+00	7.940728e+00	5.749794e+00	3.330406e+00	7.798911e-01	-3.797630e+00	-1.000296e+01	-1.441027e+01	-1.396366e+01	-1.032128e+01	-5.637023e+00	-2.373384e+00	-1.119482e+00	-1.382664e+00	-1.017213e+00	1.718969e-02	1.067876e+00	1.353080e+00	2.290331e+00	3.497923e+00	2.871211e+00	-1.500140e+00	-4.958816e+00	-3.938126e+00	1.339504e-01	2.808775e+00	3.332055e+00	2.440677e+00	2.861565e+00	3.432150e+00	5.854975e+00	7.233380e+00	8.370261e+00	6.575260e+00	7.100782e+00	6.352526e+00	5.512814e+00	-3.281822e+00	-1.127181e+01	-3.828849e+01	2.804880e+01	1.278816e+01	-1.942541e+02	-5.206954e+01	1.974262e+02	9.961806e+01	-5.009997e+00	3.952077e+00	-7.447311e-01	3.894070e-01	-1.611434e+00	-3.286094e-01	1.537278e-01	1.074877e+00	-1.594748e+00	-3.604720e+00	-4.470812e+00	-3.263908e+00	-2.930702e+00	-1.807351e+00	-5.365100e-02	2.660487e+00	4.170126e+00	4.997682e+00	4.081791e+00	2.173736e+00	-4.395283e-01	-1.770303e+00	-3.409986e+00	-5.117403e+00	-6.910877e+00	-8.320412e+00	-9.137328e+00	-7.714492e+00	-4.255084e+00	4.820946e-01	5.919962e+00	1.095048e+01	1.248684e+01	9.855425e+00	5.147452e+00	1.986000e+00	4.028892e-01	-1.714678e-01	-1.845859e+00	-3.086123e+00	-3.333465e+00	-1.280228e+00	1.074067e+00	3.461698e+00	4.973644e+00	5.999367e+00	4.999883e+00	2.738959e+00	-6.003420e-01	-4.026654e+00	-6.852587e+00	-6.424538e+00	-3.305113e+00	-1.588467e-01	4.094796e-01	-6.569146e-01	-7.186319e-01	6.604655e-01	2.357519e+00	3.251964e+00	2.707752e+00	1.077269e+00	-5.177735e-01	-7.697825e-01	-4.388189e-01	2.159465e-01	-2.267296e-01	-2.258740e+00	-4.463892e+00	-3.329702e+00	4.408614e-01	4.162761e+00	6.372286e+00	8.724368e+00	1.045992e+01	9.992754e+00	6.924513e+00	4.223984e+00	1.236003e+00	-2.299339e+00	-6.137537e+00	-6.959085e+00	-7.059897e+00	-7.029477e+00	-6.554977e+00	-4.142479e+00	-2.301293e+00	-1.189805e+00	-8.253475e-01	6.737132e-01	2.891454e+00	6.944542e+00	1.006405e+01	1.198543e+01	1.143756e+01	1.127268e+01	9.626167e+00	7.913377e+00	4.400570e+00	9.855190e-01	-5.355979e+00	-1.157831e+01	-1.777337e+01	-2.207525e+01	-3.503350e+01	6.999396e+01	1.109002e+02	-9.085956e+01	-2.169658e+01	2.087258e+02	1.246706e+02	8.644223e+00	1.074552e+01	5.176363e+00	1.222515e+00	-4.209343e+00	-4.043211e+00	-5.072857e+00	-5.856392e+00	-7.625017e+00	-4.976397e+00	-2.067576e+00	8.639719e-01	1.299398e+00	3.136297e+00	4.867060e+00	7.258876e+00	8.048009e+00	8.993714e+00	7.259947e+00	3.537946e+00	-1.911989e+00	-4.712453e+00	-5.977654e+00	-5.924861e+00	-8.006765e+00	-1.124246e+01	-1.475833e+01	-1.539306e+01	-1.394329e+01	-9.944996e+00	-5.969337e+00	-2.111289e+00	8.434502e-01	4.836237e+00	8.454523e+00	1.185311e+01	1.349141e+01	1.413275e+01	1.250392e+01	1.046188e+01	8.062559e+00	6.983153e+00	4.792960e+00	7.904616e-01	-6.323671e+00	-1.299125e+01	-1.823498e+01	-2.003507e+01	-1.918716e+01	-1.424148e+01	-8.444549e+00	-2.120098e+00	3.279858e+00	8.822602e+00	1.200012e+01	1.367663e+01	1.255467e+01	1.035112e+01	6.324056e+00	1.763030e+00	-5.120037e+00	-1.269689e+01	-1.789513e+01	-1.602750e+01	-1.011659e+01	-4.181872e+00	-1.282462e+00	3.360623e+00	1.002522e+01	1.715746e+01	2.032876e+01	2.090334e+01	1.856896e+01	1.421459e+01	7.133681e+00	4.347900e-01	-7.585975e+00	-1.328570e+01	-1.644843e+01	-1.412729e+01	-9.881676e+00	-2.268252e+00	3.996417e+00	1.014427e+01	9.687945e+00	6.752232e+00	-7.088054e+00	1.026576e+02	1.436830e+02	-8.001264e+01	-4.359815e+01	1.989908e+02	9.961796e+01	-2.628576e+01	-9.170560e+00	-8.869943e+00	-3.422769e-01	2.972284e+00	1.004089e+01	1.300732e+01	1.866304e+01	1.945791e+01	1.848615e+01	9.096476e+00	8.865484e-01	-8.705483e+00	-1.262423e+01	-1.519239e+01	-1.040371e+01	-8.911583e+00	8.365139e+00
-4.299631e+00	-1.623828e+01	-8.463368e+00	-6.616541e+00	-6.734499e+00	-4.682851e+00	-9.357901e-01	7.603334e+00	2.151984e+01	4.461592e+01	6.642310e+01	8.457893e+01	9.816963e+01	1.094485e+02	1.149673e+02	1.196213e+02	1.197609e+02	1.183546e+02	1.064344e+02	8.835097e+01	6.556999e+01	4.160831e+01	1.854875e+01	5.905382e+00	-1.066228e+00	-2.444009e+00	-5.699687e+00	-6.573557e+00	-9.020930e+00	-8.857570e+00	-1.046677e+01	-8.698521e+00	-5.440890e+00	4.193045e+00	1.082330e+01	1.480028e+01	1.143522e+01	8.470146e+00	2.612446e+00	-3.393460e-01	-4.491785e+00	-4.527878e+00	-7.216787e+00	-8.250935e+00	-1.121332e+01	-1.015718e+01	-1.069347e+01	-8.158794e+00	-6.754435e+00	-1.177619e+00	1.502126e+00	5.439185e+00	4.321873e+00	6.037345e+00	4.771647e+00	7.180155e+00	4.627912e+00	3.819696e+00	-2.499234e+00	-4.972158e+00	-9.983616e+00	-9.169122e+00	-1.144169e+01	-8.873841e+00	-9.378979e+00	-5.465310e+00	-6.341878e+00	-1.640394e+00	8.586723e-01	8.549387e+00	8.663975e+00	1.102250e+01	7.966991e+00	1.260105e+01	1.232854e+01	1.644389e+01	1.267943e+01	1.306340e+01	6.178593e+00	5.038467e+00	-3.747965e+00	-4.890328e+00	-1.244915e+01	-1.112504e+01	-1.705115e+01	-1.192436e+01	-1.393691e+01	-4.476520e+00	-6.486724e+00	1.259309e+00	-4.507222e+00	1.899688e+00	-6.862360e+00	-2.406732e-01	-8.561230e+00	6.012663e+00	-3.570580e+00	1.015097e+01	-2.328046e+01	4.035842e+01	2.212387e+02	5.305588e+02	6.067653e+02	4.361388e+02	-5.819034e+01	-2.690083e+02	-1.156019e+01	-1.375521e+01	-5.447569e+00	-1.132264e+01	-1.354051e+00	-5.670205e+00	1.194347e+00	-5.518517e+00	-2.459607e+00	-7.025426e+00	-1.329960e+00	-1.721105e+00	4.219419e+00	2.735256e+00	5.762881e+00	2.383225e+00	3.978804e+00	1.930229e+00	7.079713e+00	1.269865e+01	2.746802e+01	4.326917e+01	6.430893e+01	8.185944e+01	1.026617e+02	1.186493e+02	1.249434e+02	1.172015e+02	1.007518e+02	7.572593e+01	5.267284e+01	2.773452e+01	8.761824e+00	-2.467862e+00	-8.419519e+00	-1.068753e+01	-1.047623e+01	-9.263089e+00	-7.257056e+00	-3.936553e+00	6.273568e-01	4.667961e+00	5.287529e+00	3.283677e+00	1.321628e+00	3.013344e+00	6.332858e+00	8.818863e+00	7.717770e+00	4.907383e+00	1.317822e-01	-1.898383e+00	-2.927314e+00	-3.551241e+00	-6.978186e+00	-7.712403e+00	-7.395784e+00	-5.870995e+00	-7.764029e+00	-6.552159e+00	-5.138601e+00	-2.000435e+00	-3.734780e+00	-3.712863e+00	-4.666244e+00	2.001468e-01	3.857192e+00	9.539127e+00	1.028611e+01	1.192433e+01	6.724584e+00	3.664915e+00	-3.255867e+00	-4.523753e+00	-1.060068e+01	-1.155425e+01	-1.428226e+01	-8.229848e+00	-7.594372e+00	-2.830169e+00	-5.392808e+00	-1.974642e+00	-6.493326e+00	-2.515681e+00	-8.299307e+00	-4.883365e+00	-2.686473e+01	8.396304e+01	3.237838e+02	6.490439e+02	6.577117e+02	3.955837e+02	-1.607750e+02	-2.288708e+02	1.397242e+00	-1.512957e+01	4.380364e+00	-1.792191e+00	7.188688e+00	-2.676719e+00	-1.992247e+00	-1.199961e+01	-7.932464e+00	-1.017857e+01	-3.120939e-01	4.172222e+00	1.437049e+01	1.466316e+01	1.602301e+01	1.032168e+01	1.246931e+01	1.848870e+01	4.056878e+01	6.333144e+01	8.341290e+01	9.837701e+01	1.135428e+02	1.220991e+02	1.316593e+02	1.324596e+02	1.294169e+02	1.159483e+02	9.398378e+01	6.961426e+01	4.491189e+01	1.963211e+01	4.025240e+00	-4.959934e+00	-8.513093e+00	-1.138172e+01	-1.316897e+01	-1.439448e+01	-1.437563e+01	-1.270976e+01	-8.907900e+00	-3.680435e+00	2.803243e-01	3.357137e+00	4.203051e+00	4.937575e+00	5.159975e+00	6.659057e+00	5.901015e+00	5.988787e+00	4.765032e+00	6.592845e+00	6.038350e+00	6.415952e+00	2.426649e+00	-1.925813e-01	-6.340276e+00	-6.715727e+00	-8.936392e+00	-5.839188e+00	-7.543053e+00	-3.848357e+00	-5.504040e+00	-1.707787e+00	-5.569968e+00	-1.593018e+00	-5.500230e+00	-1.072384e+00	-7.708125e+00	1.142139e-01	-7.244513e+00	3.873548e+00	-2.104787e+01	3.313254e+01	2.028247e+02	5.059354e+02	6.144116e+02	4.311030e+02	1.766870e+00	-3.161318e+02	-5.947774e+01	-1.293995e+01	-2.442035e+01	-1.547236e+01	-1.154420e+01	-1.042742e+01	-6.721218e+00	-4.566112e+00	2.176237e+00	3.946948e+00	8.293719e+00	7.914584e+00	8.313378e+00	3.881650e+00	3.551231e+00	2.894088e+00	6.716773e+00	1.050816e+01	2.029245e+01	3.511076e+01	5.560365e+01	7.417576e+01	9.371722e+01	1.113845e+02	1.251309e+02	1.322379e+02	1.303140e+02	1.148258e+02	8.897730e+01	6.186841e+01	3.363988e+01	1.120390e+01	-1.927409e+00	-7.948694e+00	-9.905495e+00	-9.398038e+00	-7.049980e+00	-1.307838e+00	5.408893e+00	1.101561e+01	1.149889e+01	9.255616e+00	4.507937e+00	3.281492e+00	2.545729e+00	3.051190e+00	-4.153029e-01	-2.835559e+00	-7.477517e+00	-9.693071e+00	-1.520189e+01	-1.674885e+01	-1.904767e+01	-1.469409e+01	-1.236219e+01	-4.014574e+00	-6.255356e-01	5.283328e+00	2.499452e+00	5.591991e+00	1.310380e+00	4.238999e+00	-3.019918e+00	1.925729e+00	-4.487001e+00	4.213402e+00	-9.230079e+00	8.886164e-01	-3.201606e+01	1.273113e+01	1.676520e+02	4.619340e+02	6.073071e+02	4.564964e+02	5.965377e+01	-2.984722e+02	-5.248502e+01	-5.151594e+00	-1.013349e+01	-1.256317e+01	-5.412048e+00	-1.087348e+01	-6.384099e+00	-1.576373e+01	-1.393631e+01	-1.993177e+01	-1.116985e+01	-7.858015e+00	5.912501e+00	9.596479e+00	1.903330e+01	1.864172e+01	2.620676e+01	2.936431e+01	4.245284e+01	4.598270e+01	5.410128e+01	5.523477e+01	6.864200e+01	8.102806e+01	1.038014e+02	1.185175e+02	1.260824e+02	1.091915e+02	8.629136e+01	5.598317e+01	3.046029e+01	8.211918e+00	3.539765e+00	-3.799535e+00	-4.758943e+00	-1.073920e+01	-1.086166e+01	-1.493780e+01	-1.054162e+01	-7.980238e+00	1.484604e+00	4.604384e+00	1.064925e+01	1.125111e+01	1.790378e+01	2.181248e+01	2.619626e+01	1.895757e+01	1.141759e+01	-3.156905e+00	-8.767547e+00	-1.598341e+01	-1.736771e+01	-2.275570e+01	-2.127425e+01	-2.179512e+01	-1.500777e+01	-1.269216e+01	-6.566843e+00	-6.990511e+00	-1.676240e+00	1.426665e+00	1.031038e+01	1.021735e+01	9.750552e+00	5.553904e-01	-2.914719e+00	-8.823002e+00	-7.134283e+00	-1.007581e+01	-7.172818e+00	-7.015685e+00	1.045630e+00	5.162185e+00	1.577819e+01	1.769927e+01	2.266372e+01	1.814551e+01	2.002591e+01	1.424813e+01	1.291892e+01	-6.294433e-02	-3.992018e+00	-1.202056e+01	-8.340746e+00	-1.582809e+01	-1.450072e+01	-2.171486e+01	-9.339622e+00	-7.613606e+00	1.175255e+01	-3.503813e+00	5.268028e+01	2.492902e+02	5.456690e+02	7.127945e+02	5.626779e+02	7.028457e+01	-3.025961e+02	-7.447369e+01	-1.813134e+01	-3.431010e+01	-2.611707e+01	-2.427806e+01	-1.449293e+01	-7.076416e+00	3.751883e+00	1.391761e+01	2.199143e+01	2.157932e+01	1.626655e+01	5.708161e+00	-1.170455e+00	-4.839460e+00	-4.349923e+00	-5.468052e+00	-2.726906e+00	5.852190e-01	8.962490e+00	2.166461e+01	4.934176e+01	7.943657e+01	1.050638e+02	1.189222e+02	1.229570e+02	1.199175e+02	1.114287e+02	9.075192e+01	6.990887e+01	4.344552e+01	2.136136e+01	7.752675e+00	3.626000e+00	-1.887411e+00	-4.239196e+00	-7.990599e+00	-6.228885e+00	-8.025765e+00	-6.468513e+00	-6.390345e+00	1.064797e+00	5.515337e+00	1.130081e+01	1.131390e+01	1.544667e+01	1.477837e+01	1.698120e+01	1.174905e+01	1.012231e+01	3.659528e+00	2.452863e+00	-4.258620e+00	-4.498162e+00	-9.251806e+00	-5.950629e+00	-9.041259e+00	-5.989062e+00	-1.077804e+01	-5.924058e+00	-7.090317e+00	7.416872e-01	-4.239577e+00	-1.312433e+00	-1.015255e+01	-5.810025e+00	-1.769840e+01	-1.328710e+01	-2.832359e+01	-1.703232e+01	-5.363307e+01	3.227356e+01	2.012143e+02	5.342627e+02	6.694000e+02	4.519726e+02	2.872161e+01	-2.828319e+02	-4.207321e+01	1.453921e+00	-1.006725e+01	-1.390753e+01	-1.576010e+01	-2.375663e+01	-1.926391e+01	-1.847761e+01	-7.820104e+00	-3.454757e+00	8.304451e+00	1.129582e+01	1.818526e+01	1.705313e+01	2.082812e+01	2.016946e+01	2.621662e+01	3.014835e+01	3.987693e+01	4.737373e+01	5.982710e+01	6.991319e+01	8.363858e+01	9.346904e+01	1.062423e+02	1.145066e+02	1.220635e+02	1.123771e+02	9.297693e+01	6.825890e+01	4.523053e+01	2.120104e+01	7.166847e+00	-2.945680e+00	-7.258179e+00	-1.245910e+01	-1.376888e+01	-1.565732e+01	-1.335444e+01	-1.156458e+01	-5.867365e+00	-1.081462e+00	4.739698e+00	5.616997e+00	6.225151e+00	5.099109e+00	6.579447e+00	6.895452e+00	8.639319e+00	8.198207e+00	7.401649e+00	2.255988e+00	-2.873071e+00	-8.110805e+00	-1.041750e+01	-1.286561e+01	-1.191337e+01	-9.830626e+00	-4.392790e+00	-1.345058e-01	3.054261e+00	1.221356e+00	-1.144184e+00	-3.602801e+00	-1.737810e+00	3.628501e-03	9.893325e-01	-2.649902e+00	-5.967933e+00	-9.477605e+00	-9.800456e+00	-9.219776e+00	-5.140680e+00	-2.698153e+00	-1.598677e+00	-2.892639e+00	-1.788720e+00	-6.725242e-01	1.523306e+00	3.455828e+00	8.070493e+00	1.174069e+01	1.392298e+01	1.134431e+01	7.803172e+00	2.512159e+00	5.053587e-01	-6.616593e-01	1.093927e+00	1.422309e+00	3.068943e+00	1.775221e+00	6.694961e-01	-4.272407e+00	-6.337933e+00	-7.680412e+00	-2.955773e+00	2.032414e-01	2.456117e+00	-1.292334e+00	-4.035533e+00	-9.131707e+00	-1.022063e+01	-1.110445e+01	-5.241673e+00	-2.878701e+00	2.600496e+00	1.122987e+00	6.549315e+00	-1.759309e+00	6.242956e+00	1.384095e+02	4.087482e+02	6.373645e+02	5.680672e+02	2.313998e+02	-2.583413e+02	-1.334756e+02	1.401059e+01	-1.384802e+01	-2.477382e+00	-1.139820e+01	-9.320704e+00	-1.320686e+01	-1.046138e+01	-1.191992e+01	-9.440060e+00	-1.025379e+01	-8.125670e+00	-7.808703e+00	-3.408425e+00	9.661486e-01	9.034606e+00	1.650718e+01	2.551205e+01	3.006657e+01	3.945585e+01	4.887546e+01	6.188315e+01	7.770725e+01	9.525066e+01	1.138337e+02	1.288040e+02	1.320188e+02	1.299410e+02	1.236189e+02	1.068615e+02	8.158445e+01	5.708344e+01	3.122920e+01	1.440364e+01	2.814703e+00	-4.705555e+00	-8.566939e+00	-8.395540e+00	-8.233147e+00	-8.584368e+00	-9.897561e+00	-9.269076e+00	-6.821945e+00	-1.435166e+00	5.067864e+00	1.215146e+01	1.742711e+01	2.055419e+01	1.809269e+01	1.163214e+01	2.557136e+00	-2.420279e+00	-3.176846e+00	-2.129517e+00	-2.023357e+00	-1.690634e+00	-1.350201e+00	-3.285013e-01	4.943860e-01	9.991468e-02	-1.194739e+00	-1.157538e+00	-5.235233e-01	-9.139725e-01	-3.703126e+00	-6.668279e+00	-8.510710e+00	-9.353651e+00	-9.979601e+00	-1.044149e+01	-9.763335e+00	-8.335931e+00	-5.200308e+00	-8.877239e-01	3.941189e+00	7.508695e+00	9.392655e+00	9.404230e+00	7.222428e+00	2.088935e+00	-4.095927e+00	-9.253305e+00	-1.157758e+01	-1.139596e+01	-9.750734e+00	-8.793230e+00	-6.870998e+00	-1.398423e+00	6.589752e+00	1.279745e+01	1.536226e+01	1.441134e+01	1.102230e+01	6.300733e+00	4.013385e+00	3.205587e+00	2.010265e+00	-1.668999e+00	-4.924744e+00	-6.703297e+00	-6.932470e+00	-7.811514e+00	-6.365259e+00	-2.842150e+00	2.227927e+00	3.059142e+00	2.414288e+00	1.799952e+00	4.275289e+00	3.651083e+00	2.548569e+00	-8.180815e-01	-1.999582e+00	-5.964815e+00	-6.346287e+00	-8.878998e+00	-5.436816e+00	-7.617023e+00	-8.373763e-01	-8.014267e+00	4.246341e-01	1.218276e+02	4.097308e+02	7.020829e+02	6.482897e+02	2.387087e+02	-2.656460e+02	-1.452141e+02	7.789555e+00	-1.780676e+01	-9.953525e+00	-1.342961e+01	-1.034193e+01	-9.571331e+00	-6.807626e+00	-4.876491e+00	-1.049093e+00	2.949613e+00	5.613789e+00	6.559996e+00	6.475074e+00	7.748911e+00	8.964615e+00	1.124993e+01	1.409668e+01	2.079225e+01	3.340708e+01	5.422456e+01	7.350510e+01	9.174406e+01	1.082610e+02	1.187128e+02	1.236774e+02	1.265655e+02	1.237998e+02	1.114493e+02	8.655658e+01	5.993787e+01	2.987147e+01	7.009374e+00	-5.603374e+00	-8.119180e+00	-8.819748e+00	-8.791774e+00	-9.548561e+00	-6.521233e+00	-1.979252e+00	2.234434e+00	2.224075e+00	1.474521e+00	2.113509e-01	3.890020e-01	-6.461963e-01	9.104407e-03	1.207577e+00	4.102208e+00	5.790202e+00	7.774207e+00	8.032618e+00	7.008322e+00	1.906400e+00	-2.838181e+00	-5.319618e+00	-4.312707e+00	-4.606862e+00	-5.982233e+00	-9.061455e+00	-1.012221e+01	-9.239961e+00	-5.148484e+00	-2.446963e+00	-1.428705e+00	-2.891514e+00	-2.720544e+00	-1.702403e+00	1.999098e+00	3.952390e+00	3.473262e+00	-1.156020e+00	-4.724769e+00	-7.045436e+00	-7.511989e+00	-8.947078e+00	-8.390114e+00	-6.879406e+00	-4.199652e+00	-2.274226e+00	1.068695e+00	4.773417e+00	9.341200e+00	1.189701e+01	1.378220e+01	1.296370e+01	1.108416e+01	7.643562e+00	5.170996e+00	2.969156e+00	1.874218e+00	-7.912525e-01	-3.543165e+00	-6.292047e+00	-6.871722e+00	-7.513354e+00	-8.422588e+00	-1.040935e+01	-1.064370e+01	-9.708457e+00	-5.062477e+00	-1.166808e+00	2.535960e+00	-8.536133e-01	-3.285376e+00	1.136718e+02	3.691206e+02	6.166309e+02	5.572351e+02	2.314242e+02	-2.678391e+02	-1.892270e+02	-5.649785e+00	-3.972033e+01	-1.412855e+01	-1.578927e+01	-3.617596e+00	-6.083586e+00	3.680091e+00	5.633013e+00	1.414096e+01	1.151101e+01	1.278238e+01	6.947811e+00	6.105101e+00	-2.473661e-01	4.054709e-02	-1.892615e+00	3.755393e+00	9.248131e+00	2.702160e+01	4.873259e+01	7.325521e+01	8.964536e+01	1.076514e+02	1.167906e+02	1.269851e+02	1.303916e+02	1.310477e+02	1.202280e+02	9.906333e+01	7.145648e+01	4.726092e+01	2.102015e+01	8.604730e+00	-2.458347e+00	-7.150952e+00	-1.124320e+01	-1.033455e+01	-1.165957e+01	-9.212987e+00	-8.841988e+00	-5.646968e+00	-5.438609e+00	-1.704605e+00	6.538112e-01	6.741056e+00	1.068911e+01	1.761640e+01	1.882006e+01	1.908621e+01	1.385892e+01	9.746283e+00	2.367920e+00	-2.323083e+00	-8.306927e+00	-9.546277e+00	-1.218664e+01	-1.082487e+01	-1.099317e+01	-8.335550e+00	-7.662747e+00	-2.251815e+00	2.137496e+00	7.166580e+00	4.546724e+00	1.477324e+00	-2.875400e+00	-2.532758e+00	-6.639148e+00	-1.166375e+01	-1.945256e+01	-2.280412e+01	-2.492521e+01	-2.072409e+01	-1.573061e+01	-5.971101e+00	1.188866e+00	8.753747e+00	1.006155e+01	1.004043e+01	4.925478e+00	-2.656415e-01	-7.026711e+00	-1.353777e+01	-1.802613e+01	-3.072919e+01	-3.703427e+01	9.212512e+01	3.378551e+02	6.056855e+02	5.641949e+02	2.787358e+02	-2.264648e+02	-1.500872e+02	3.095930e+01	-1.152185e+01	3.971477e-01	-1.275783e+01	-1.072834e+01	-2.087354e+01	-2.287752e+01	-2.952244e+01	-2.540392e+01	-1.987320e+01	-6.041412e+00	7.359864e+00	2.073039e+01	2.646733e+01	2.815495e+01	2.378913e+01	2.729963e+01	1.752960e+01
4.421615e+01	2.773207e+01	2.272843e+01	1.456723e+01	5.535758e+00	-9.805164e+00	-1.854978e+01	-2.299057e+01	-1.583309e+01	-8.119493e+00	3.892309e+00	1.529682e+01	2.739111e+01	2.856425e+01	2.439478e+01	9.778520e+00	-3.466802e+00	-1.944606e+01	-3.306703e+01	-4.757602e+01	-5.461366e+01	-5.837621e+01	-5.355008e+01	-4.697976e+01	-3.245757e+01	-1.985227e+01	-2.795138e+00	1.190598e+01	3.130344e+01	4.575717e+01	5.337209e+01	4.171163e+01	1.830417e+01	-1.087649e+01	-2.595078e+01	-3.286796e+01	-3.000341e+01	-2.901271e+01	-2.132847e+01	-1.343394e+01	2.951248e+00	2.005957e+01	4.350335e+01	5.856369e+01	7.474355e+01	8.681537e+01	9.974606e+01	1.016283e+02	9.447409e+01	6.691826e+01	3.317900e+01	-7.195266e+00	-3.693453e+01	-6.374193e+01	-7.397221e+01	-7.692611e+01	-6.668107e+01	-5.652126e+01	-3.652778e+01	-1.984827e+01	1.009302e+00	1.862916e+01	4.069331e+01	4.979826e+01	5.478272e+01	3.938888e+01	1.754253e+01	-9.551103e+00	-2.304426e+01	-3.361629e+01	-3.129848e+01	-3.238984e+01	-2.362874e+01	-1.878643e+01	-5.372078e+00	2.779285e+00	2.163363e+01	3.399251e+01	5.085746e+01	5.152576e+01	4.976475e+01	2.897090e+01	1.263998e+01	-9.296718e+00	-1.464244e+01	-2.403796e+01	-1.870302e+01	-2.179773e+01	-1.391801e+01	-1.690950e+01	-3.393371e+00	-3.164989e+00	1.101671e+01	1.164714e+00	4.004528e-02	-2.601075e+01	-1.864017e+01	-3.195174e+01	8.530935e+01	1.079255e+02	-1.771007e+02	-7.325282e+02	-1.022585e+03	-1.135146e+03	-6.996841e+02	-1.821937e+02	-1.511433e+02	-8.660592e+01	-8.223334e+01	-6.177889e+01	-6.264710e+01	-4.295604e+01	-3.607117e+01	-1.458305e+01	-5.019788e+00	1.757499e+01	2.841352e+01	4.229586e+01	4.602057e+01	5.138984e+01	4.839676e+01	5.100319e+01	4.730697e+01	5.079989e+01	5.040355e+01	4.918861e+01	3.898095e+01	2.938861e+01	1.740984e+01	9.052384e+00	-1.216457e+00	-7.915060e+00	-1.491248e+01	-2.012608e+01	-2.745005e+01	-2.947359e+01	-2.844382e+01	-2.091950e+01	-1.327640e+01	-8.769112e+00	-6.998539e+00	-5.878448e+00	-6.176635e+00	-4.972522e+00	-4.471629e+00	-5.104173e+00	-7.265378e+00	-9.370757e+00	-9.418029e+00	-7.414177e+00	-3.708681e+00	-1.961789e+00	-4.774890e-01	-1.050106e+00	-5.587888e-01	1.680975e+00	6.649295e+00	1.281174e+01	2.358328e+01	3.212073e+01	3.394544e+01	2.456131e+01	9.045528e+00	-7.842300e+00	-1.550449e+01	-1.897830e+01	-1.619627e+01	-1.305316e+01	-6.043151e+00	-2.049927e+00	4.079624e+00	2.901150e+00	-4.938271e-01	-8.191758e+00	-1.260108e+01	-1.570147e+01	-9.102665e+00	-3.666456e+00	4.744621e+00	2.763254e+00	-1.722886e+00	-9.476864e+00	-6.693204e+00	-6.911594e+00	-2.014434e+00	-5.443185e+00	-4.808552e+00	-1.105221e+01	-1.523758e+01	-2.442711e+01	-2.544835e+01	-1.628707e+01	1.352566e+02	1.150568e+02	-2.298203e+02	-7.552576e+02	-9.538205e+02	-9.891314e+02	-4.924783e+02	-1.044480e+02	-8.132808e+01	-2.668256e+01	-2.378785e+01	-9.469894e+00	-1.457103e+01	3.840867e-01	1.202191e+01	4.055197e+01	5.592784e+01	6.866625e+01	6.443285e+01	6.014659e+01	4.956996e+01	4.433929e+01	3.823775e+01	3.991668e+01	3.687233e+01	2.823366e+01	9.567988e+00	-7.492561e+00	-1.863838e+01	-1.767422e+01	-1.243095e+01	-6.430739e+00	-4.364501e+00	-6.106548e+00	-1.057224e+01	-1.237732e+01	-9.585217e+00	-4.404478e+00	1.836046e+00	4.587140e+00	3.312549e+00	-2.918981e+00	-1.339611e+01	-2.782959e+01	-3.854212e+01	-4.004258e+01	-2.563992e+01	-5.894283e+00	1.333243e+01	2.060012e+01	1.766695e+01	5.609194e+00	1.153123e+00	4.201232e+00	1.995437e+01	3.808307e+01	5.715308e+01	5.929969e+01	4.827967e+01	1.825124e+01	-7.508177e+00	-3.037036e+01	-3.982890e+01	-4.823263e+01	-4.573949e+01	-4.738236e+01	-4.261381e+01	-4.577245e+01	-3.791050e+01	-3.365199e+01	-1.686956e+01	-9.966003e+00	5.826428e+00	7.816198e+00	2.227769e+01	1.461582e+01	1.606972e+01	-1.084665e+01	-8.722875e+00	-2.370177e+01	5.871865e+01	1.114240e+02	-1.078389e+02	-6.409910e+02	-9.778821e+02	-1.108763e+03	-7.583526e+02	-1.359941e+02	-5.973441e+01	-4.422548e+00	-5.001993e-01	1.176177e+01	-7.942262e+00	-8.077727e+00	-2.455640e+01	-2.311401e+01	-3.303460e+01	-2.642660e+01	-2.367161e+01	-5.613441e+00	6.318161e+00	2.882331e+01	4.156179e+01	5.689368e+01	6.014882e+01	6.498092e+01	5.761229e+01	5.311255e+01	4.051602e+01	3.036718e+01	1.390218e+01	2.375132e+00	-8.964863e+00	-1.161867e+01	-1.343157e+01	-6.068740e+00	4.893258e-01	9.379675e+00	1.047360e+01	6.448321e+00	-4.969273e+00	-1.508499e+01	-2.660452e+01	-3.649450e+01	-4.523568e+01	-4.747109e+01	-4.419692e+01	-3.210650e+01	-1.680346e+01	-8.611575e-01	1.382534e+01	2.834848e+01	4.126459e+01	4.699305e+01	4.574022e+01	3.217908e+01	1.218777e+01	-6.541101e+00	-1.775520e+01	-2.729485e+01	-2.846431e+01	-2.559609e+01	-1.324900e+01	-4.704852e+00	1.084827e+01	2.129493e+01	3.650012e+01	4.051463e+01	4.129198e+01	2.085583e+01	6.152204e+00	-2.152614e+01	-3.257045e+01	-5.761521e+01	-4.350434e+01	-5.559268e+01	7.848622e+01	1.506909e+02	-6.046174e+01	-5.927896e+02	-9.314764e+02	-1.046351e+03	-7.585637e+02	-1.443935e+02	-5.905534e+01	-5.619282e+00	-6.715965e+00	6.598142e+00	-1.468218e+01	-1.120132e+01	-2.523440e+01	-1.407801e+01	-1.612838e+01	4.343186e+00	1.759681e+01	4.949111e+01	6.085100e+01	7.711057e+01	6.922138e+01	6.986885e+01	5.645873e+01	5.376929e+01	3.803672e+01	3.198365e+01	1.319389e+01	5.596027e+00	-1.186616e+01	-2.124880e+01	-4.040209e+01	-4.663360e+01	-6.054786e+01	-5.963478e+01	-6.214705e+01	-5.053845e+01	-4.371621e+01	-2.728858e+01	-2.171507e+01	-1.267399e+01	-1.636398e+01	-1.270719e+01	-1.685682e+01	-8.013515e+00	-5.717348e+00	2.383218e+00	-5.401115e-01	1.317103e+00	-6.380657e+00	-2.502450e+00	-1.258308e+00	1.069398e+01	1.755555e+01	3.899769e+01	5.502674e+01	8.123464e+01	9.660506e+01	1.062288e+02	9.038489e+01	7.150358e+01	4.137429e+01	1.742413e+01	-5.578022e+00	-1.272398e+01	-2.378028e+01	-2.202927e+01	-2.904664e+01	-2.818313e+01	-3.411825e+01	-2.895705e+01	-2.243373e+01	2.192171e+00	2.841314e+01	6.191235e+01	6.931211e+01	7.016415e+01	5.268260e+01	3.531597e+01	4.910706e+00	-9.873916e+00	-3.165486e+01	-3.498944e+01	-4.096150e+01	-3.325589e+01	-3.503286e+01	-2.152649e+01	-1.876870e+01	2.731306e-01	7.262908e+00	2.583241e+01	2.048626e+01	2.027699e+01	-4.676464e+00	-7.739534e+00	-3.327807e+01	-2.212360e+01	-3.132285e+01	4.310425e+01	1.100530e+02	-8.935581e+01	-6.127977e+02	-9.385886e+02	-1.050342e+03	-7.761287e+02	-1.870601e+02	-7.682083e+01	-2.263086e+01	-4.424736e+00	7.703839e+00	-5.146264e+00	-1.023931e+01	-1.993668e+01	-1.294271e+01	-9.935383e+00	-4.831588e+00	-7.634130e+00	-1.499010e+00	1.118944e+01	3.478494e+01	5.404413e+01	7.063435e+01	7.701266e+01	8.003415e+01	7.789658e+01	7.533696e+01	6.757629e+01	5.212757e+01	2.499089e+01	-2.527882e+00	-2.284876e+01	-3.610146e+01	-4.315702e+01	-4.621089e+01	-4.455787e+01	-4.013133e+01	-3.083982e+01	-2.059589e+01	-1.077754e+01	-6.920911e+00	-6.299755e+00	-7.092535e+00	-1.956213e+00	8.983065e+00	2.521817e+01	3.546335e+01	3.815223e+01	2.682660e+01	1.542380e+01	6.341826e+00	4.760121e+00	2.691766e+00	4.030834e+00	2.156377e-02	9.204500e-01	2.027339e-01	5.292378e+00	8.587200e+00	1.641167e+01	1.960732e+01	2.613134e+01	1.832315e+01	1.237892e+01	-1.608794e+00	-8.653719e+00	-2.370274e+01	-3.495966e+01	-5.759621e+01	-6.427163e+01	-7.215539e+01	-6.244204e+01	-5.968716e+01	-4.216494e+01	-3.881229e+01	-1.746958e+01	-2.344990e+01	1.390042e+02	2.098517e+02	-1.286496e+01	-5.626604e+02	-9.326891e+02	-1.084235e+03	-7.949475e+02	-2.228441e+02	-1.581103e+02	-9.728064e+01	-7.905781e+01	-4.801587e+01	-3.665257e+01	-8.478840e+00	5.626325e+00	3.851396e+01	5.654297e+01	8.048575e+01	8.444169e+01	8.356534e+01	5.910776e+01	3.394087e+01	1.203013e+00	-8.634053e+00	-1.499487e+01	-5.299764e+00	1.429934e+00	1.606383e+01	2.114054e+01	3.003259e+01	2.860140e+01	2.723470e+01	1.791922e+01	1.419846e+01	6.473778e+00	1.281140e+00	-1.515318e+01	-2.993404e+01	-4.799744e+01	-5.184126e+01	-5.335003e+01	-4.914800e+01	-4.826187e+01	-3.954891e+01	-2.993440e+01	-1.306835e+01	1.420351e+00	2.097552e+01	3.418054e+01	4.658191e+01	4.846720e+01	4.963382e+01	4.211024e+01	2.819995e+01	4.326962e+00	-1.438528e+01	-3.200735e+01	-3.869310e+01	-4.040519e+01	-3.335630e+01	-2.509765e+01	-9.808414e+00	2.737862e+00	2.141145e+01	3.726675e+01	5.121501e+01	5.528433e+01	5.403812e+01	4.177089e+01	2.870170e+01	1.193207e+01	-3.231667e-01	-1.705340e+01	-3.209816e+01	-4.427577e+01	-4.471593e+01	-4.001483e+01	-2.526881e+01	-1.302660e+01	2.243208e+00	1.201299e+01	1.892145e+01	1.383874e+01	5.153730e+00	-7.907015e+00	-1.383212e+01	-1.682957e+01	-1.088679e+01	-6.879011e+00	-7.800475e-01	-4.690741e-01	2.471336e+00	5.709657e+00	2.107812e+01	3.502650e+01	4.582364e+01	3.973162e+01	2.533083e+01	7.088737e+00	-1.711111e+00	-1.452647e+01	-2.280736e+01	-3.143276e+01	-2.778937e+01	-2.289381e+01	-1.404866e+01	-1.566407e+01	-1.315861e+01	-1.538881e+01	-8.242524e+00	-6.526925e+00	2.400203e-01	-4.469165e+00	-2.300067e+00	-1.310519e+01	-4.114231e+00	-6.389250e+00	4.708497e+01	1.526941e+02	6.035283e+01	-3.965523e+02	-8.728229e+02	-1.054442e+03	-9.242057e+02	-2.965749e+02	-8.620197e+01	-4.924448e+01	-1.345882e+01	-6.783018e+00	-4.905471e+00	-3.281784e+00	4.097500e+00	1.472121e+01	2.528749e+01	3.393650e+01	4.029514e+01	4.464639e+01	4.854661e+01	5.323315e+01	6.078397e+01	7.297878e+01	8.272091e+01	8.065170e+01	5.854048e+01	2.340284e+01	-7.115585e+00	-2.470164e+01	-3.779135e+01	-5.191690e+01	-6.487064e+01	-7.502058e+01	-8.361223e+01	-8.753855e+01	-8.822689e+01	-8.385519e+01	-7.140029e+01	-5.287059e+01	-3.089032e+01	-1.100869e+01	2.878229e+00	1.011150e+01	7.334510e+00	-3.903610e-01	-5.511960e+00	-7.179210e+00	-7.036138e+00	-6.875556e+00	-5.814511e+00	-2.317003e+00	4.872417e+00	1.481712e+01	2.930436e+01	4.756771e+01	6.352295e+01	7.532371e+01	8.055646e+01	7.464324e+01	5.975584e+01	3.593807e+01	6.737796e+00	-1.504094e+01	-2.969842e+01	-3.768555e+01	-3.776184e+01	-3.230706e+01	-2.439986e+01	-1.592897e+01	-6.588584e+00	2.810109e+00	1.710090e+01	3.663813e+01	5.386515e+01	6.388643e+01	5.884390e+01	3.401254e+01	2.357340e-01	-2.573007e+01	-4.439512e+01	-5.490562e+01	-5.742505e+01	-5.311895e+01	-3.981893e+01	-2.369055e+01	-8.961157e+00	4.851028e+00	2.098372e+01	4.015308e+01	5.415186e+01	5.701118e+01	4.950793e+01	2.873842e+01	8.865146e-01	-2.167567e+01	-3.883158e+01	-4.920400e+01	-5.371441e+01	-5.444011e+01	-5.110386e+01	-3.941644e+01	-2.150941e+01	-2.053308e+00	1.768916e+01	3.516771e+01	4.297961e+01	4.025535e+01	2.652765e+01	1.224684e+01	-3.739069e-01	-6.517192e+00	-8.956832e+00	-8.838338e+00	-1.118654e+01	-1.004249e+01	-7.178293e+00	1.719400e+00	8.413088e+00	1.514502e+01	1.443711e+01	1.554667e+01	6.626877e+00	-2.572691e-01	-1.773186e+01	-2.147422e+01	-2.952759e+01	6.995402e+00	1.247591e+02	5.197539e+01	-3.697111e+02	-8.174510e+02	-9.700520e+02	-8.551879e+02	-2.722173e+02	-7.269048e+01	-4.779143e+01	-2.189705e+01	-1.522834e+01	-1.064374e+01	-5.666475e+00	-4.913345e-01	7.026948e+00	1.340194e+01	2.466304e+01	3.406848e+01	4.761767e+01	5.813328e+01	6.752708e+01	6.821912e+01	6.449127e+01	5.369145e+01	4.380222e+01	2.989410e+01	1.843234e+01	3.436963e+00	-7.210318e+00	-1.731522e+01	-2.323642e+01	-2.848935e+01	-2.630158e+01	-2.311254e+01	-1.500534e+01	-9.324574e+00	-3.841828e+00	-4.522836e+00	-6.588025e+00	-1.395354e+01	-1.920196e+01	-2.567378e+01	-2.773484e+01	-3.006428e+01	-3.030835e+01	-3.463325e+01	-3.371256e+01	-3.013632e+01	-2.090909e+01	-1.476375e+01	-8.509920e+00	-4.648142e+00	2.532912e+00	7.243936e+00	1.223617e+01	1.189789e+01	1.403358e+01	1.565775e+01	2.164383e+01	2.626225e+01	3.273555e+01	3.486797e+01	3.482419e+01	2.666302e+01	1.825332e+01	7.737536e+00	5.679867e+00	5.907190e+00	9.106331e+00	7.711452e+00	5.287501e+00	2.660220e+00	5.308686e+00	5.682407e+00	6.339579e+00	-5.667409e-01	-6.674438e+00	-1.447608e+01	-1.875176e+01	-2.649813e+01	-3.125973e+01	-3.664805e+01	-3.407841e+01	-2.781562e+01	-1.689685e+01	-1.155767e+01	-7.545627e+00	-1.122201e+01	-1.422775e+01	-1.920301e+01	-1.845413e+01	-1.708384e+01	-7.774699e+00	-2.034634e-01	1.142735e+01	1.764095e+01	2.373599e+01	2.192116e+01	2.239802e+01	1.837545e+01	2.078012e+01	1.731364e+01	1.410459e+01	2.332886e+00	-1.076129e+00	-1.099784e+01	-1.092970e+01	-2.719396e+01	-2.438253e+01	-4.199690e+01	1.872045e+01	1.639826e+02	7.782091e+01	-3.694369e+02	-8.758216e+02	-1.075805e+03	-1.014348e+03	-3.864694e+02	-1.040264e+02	-7.362976e+01	-2.765705e+01	-1.825671e+01	-9.823487e+00	-1.385469e+01	-1.145793e+01	-1.236883e+01	-4.916118e+00	2.130391e+00	1.584098e+01	2.722834e+01	3.883670e+01	4.665127e+01	5.469899e+01	6.010647e+01	6.552584e+01	6.319313e+01	5.774261e+01	4.745801e+01	3.833971e+01	2.932047e+01	2.343053e+01	1.289659e+01	2.980949e+00	-9.025307e+00	-1.896805e+01	-2.766073e+01	-3.013452e+01	-3.237656e+01	-3.089872e+01	-2.770707e+01	-1.924201e+01	-1.143292e+01	-5.533006e+00	-8.763644e+00	-1.513747e+01	-2.191317e+01	-2.341620e+01	-2.196915e+01	-1.586251e+01	-1.289771e+01	-1.070662e+01	-1.334281e+01	-1.413656e+01	-1.411093e+01	-1.169199e+01	-1.066515e+01	-7.699995e+00	-6.286010e+00	-6.418775e-01	4.895806e+00	1.452482e+01	2.722034e+01	4.235917e+01	5.161202e+01	5.727109e+01	5.168609e+01	3.687769e+01	1.694095e+01	4.603793e+00	-1.383584e+00	2.067294e+00	6.726843e+00	1.420764e+01	1.899278e+01	1.828072e+01	9.979829e+00	2.686817e+00	-2.304863e+00	-1.423561e+00	-3.822535e+00	-1.136059e+01	-2.943102e+01	-4.815510e+01	-6.257025e+01	-6.772440e+01	-6.618416e+01	-5.754606e+01	-4.574778e+01	-3.282894e+01	-2.381747e+01	-2.410503e+01	-2.361127e+01	-1.939852e+01	1.343976e+01	1.216993e+02	3.635144e+01	-4.006638e+02	-8.908111e+02	-1.084292e+03	-1.032286e+03	-3.984987e+02	-9.276059e+01	-6.068764e+01	-1.292434e+01	-4.716966e+00	4.128437e+00	5.392587e-01	-7.790089e-02	-5.156275e+00	-6.818620e+00	-9.611333e+00	-1.094679e+01	-1.245439e+01	-1.106111e+01	-6.055027e+00	3.475980e+00	1.533620e+01	2.771277e+01	3.969198e+01	5.329172e+01
3.790281e+01	-5.283471e+01	-2.334292e+01	-1.669892e+01	3.953662e-01	5.077764e+00	2.192294e+01	3.322162e+01	6.215009e+01	8.539128e+01	1.135835e+02	1.351752e+02	1.589641e+02	1.708003e+02	1.736902e+02	1.538068e+02	1.204273e+02	6.920521e+01	1.930220e+01	-1.733316e+01	-3.577784e+01	-4.792564e+01	-4.769561e+01	-4.714675e+01	-3.984324e+01	-3.438028e+01	-2.369087e+01	-1.708804e+01	-7.128344e+00	6.715726e-01	1.362764e+01	2.259250e+01	3.194246e+01	3.098799e+01	2.969479e+01	2.214464e+01	1.618980e+01	7.447404e+00	4.670413e+00	6.312017e-01	2.653579e+00	2.758844e+00	5.958925e+00	4.867123e+00	7.305040e+00	6.138430e+00	8.985038e+00	7.432403e+00	7.295643e+00	1.445866e+00	-2.341504e+00	-1.231149e+01	-1.876277e+01	-2.646416e+01	-2.640635e+01	-2.604174e+01	-2.050026e+01	-1.966525e+01	-1.310481e+01	-8.877603e+00	-1.179092e-01	3.599528e+00	9.875460e+00	9.991451e+00	1.332114e+01	1.072622e+01	1.023247e+01	3.417378e+00	2.198574e+00	-1.802053e+00	7.413326e-01	-3.947021e-01	3.684183e+00	1.863797e+00	5.195160e+00	2.128307e+00	4.515245e+00	2.280763e+00	7.737189e+00	7.090312e+00	1.258989e+01	8.782307e+00	8.134330e+00	-1.230234e+00	-3.623812e+00	-1.299900e+01	-1.211822e+01	-1.823430e+01	-1.406381e+01	-1.738622e+01	-6.047553e+00	-5.365438e+00	5.893278e+00	5.198022e-01	4.362497e+00	-1.068721e+01	-7.718797e+00	-2.539436e+01	1.842777e+02	2.885079e+02	1.557246e+02	-3.333701e+02	-1.099953e+03	-1.310877e+03	-6.009915e+02	-4.206672e+01	-4.783912e+01	-1.776991e+01	-1.608095e+01	-4.498423e+00	-9.473965e+00	-8.934508e-01	-1.567599e+00	6.891986e+00	4.403472e+00	7.653746e+00	4.074802e+00	9.014496e+00	1.527065e+01	3.241576e+01	4.825341e+01	7.150201e+01	9.168917e+01	1.145284e+02	1.359395e+02	1.588178e+02	1.724043e+02	1.825589e+02	1.861531e+02	1.846441e+02	1.731115e+02	1.510278e+02	1.159156e+02	7.441710e+01	2.895123e+01	-1.085025e+00	-1.934041e+01	-2.951347e+01	-3.276675e+01	-3.099672e+01	-2.636954e+01	-2.010820e+01	-1.354064e+01	-8.327191e+00	-7.148709e+00	-9.077638e+00	-1.008880e+01	-5.120030e+00	5.492848e+00	1.500106e+01	2.138745e+01	2.089396e+01	1.637318e+01	1.159104e+01	8.330980e+00	5.942717e+00	6.722866e+00	5.734099e+00	7.244137e+00	1.139395e+01	1.709298e+01	1.849315e+01	1.412014e+01	1.116377e+00	-9.798302e+00	-1.887502e+01	-2.175504e+01	-2.146310e+01	-1.662635e+01	-1.281910e+01	-6.233942e+00	-3.877766e+00	-9.362105e-01	-9.147044e-01	6.822710e-01	3.926691e-01	5.091684e+00	8.738131e+00	1.476291e+01	1.348576e+01	1.095870e+01	2.921609e+00	1.742551e+00	-2.078926e+00	-1.845603e+00	-6.051744e+00	-5.825607e+00	-7.964917e+00	-6.392517e+00	-7.389757e+00	-1.869432e+01	9.304937e+00	2.432018e+02	2.862978e+02	1.226784e+02	-3.699811e+02	-9.861653e+02	-1.037553e+03	-3.128619e+02	1.310345e+01	-4.120947e+01	-2.056671e+01	-4.297259e+01	-3.645710e+01	-4.410792e+01	-3.079720e+01	-2.569051e+01	-8.641036e+00	-3.556744e+00	4.629845e+00	3.745375e+00	8.332606e+00	8.380365e+00	1.421820e+01	1.566273e+01	2.281144e+01	2.818497e+01	3.916796e+01	4.839233e+01	6.236904e+01	7.793811e+01	9.926825e+01	1.192630e+02	1.388663e+02	1.487269e+02	1.420332e+02	1.161683e+02	8.016823e+01	3.776638e+01	1.163033e+01	-3.017282e+00	-1.396998e+01	-2.292962e+01	-2.991011e+01	-3.380317e+01	-3.222695e+01	-2.598719e+01	-1.749475e+01	-7.698167e+00	5.937154e-01	8.679328e+00	1.370662e+01	1.557231e+01	1.363206e+01	1.080719e+01	7.486716e+00	7.050529e+00	4.722280e+00	3.694029e+00	3.116215e-01	-5.893451e-01	-4.393571e+00	-6.644634e+00	-1.058976e+01	-1.072296e+01	-1.122486e+01	-7.830396e+00	-9.228528e+00	-7.002648e+00	-9.293661e+00	-6.546493e+00	-8.179017e+00	-4.024329e+00	-5.029357e+00	3.268421e-01	-2.256248e+00	2.315526e+00	-2.604931e+00	1.882080e+00	-5.281104e+00	-1.469964e+00	-2.541058e+01	1.639906e+02	3.024387e+02	2.091083e+02	-1.488197e+02	-8.840340e+02	-1.247798e+03	-6.520613e+02	-1.065182e+01	-3.163064e+01	-5.794779e+00	-1.188477e+01	-8.206844e+00	-1.864212e+01	-1.334115e+01	-1.622465e+01	-8.974783e+00	-1.100050e+01	-4.911994e+00	-1.882427e+00	1.246753e+01	2.444541e+01	4.577225e+01	6.571374e+01	9.044800e+01	1.091205e+02	1.333245e+02	1.528368e+02	1.704575e+02	1.751987e+02	1.767932e+02	1.712317e+02	1.687325e+02	1.602783e+02	1.492675e+02	1.270632e+02	1.007684e+02	6.587237e+01	3.611540e+01	1.899242e+01	6.253321e+00	-7.551472e+00	-1.853739e+01	-2.931893e+01	-3.727557e+01	-4.524421e+01	-4.819322e+01	-4.742971e+01	-4.033927e+01	-2.685116e+01	-8.897830e+00	8.265212e+00	2.596400e+01	4.237694e+01	5.320591e+01	5.441821e+01	4.494924e+01	3.109331e+01	1.286303e+01	-4.423324e+00	-1.864448e+01	-2.793073e+01	-3.468102e+01	-3.478403e+01	-3.334547e+01	-2.340253e+01	-1.443465e+01	-9.210225e-01	7.008464e+00	1.765927e+01	1.833489e+01	2.252002e+01	1.277847e+01	1.066133e+01	-7.077355e+00	-4.152667e+00	-3.332430e+01	1.357499e+02	2.916035e+02	2.010818e+02	-1.669214e+02	-9.309797e+02	-1.310969e+03	-7.497958e+02	-5.424370e+01	-3.652774e+01	-8.611976e+00	-2.124400e+00	6.490138e+00	-3.669576e+00	-6.176292e+00	-1.970568e+01	-1.945798e+01	-2.653681e+01	-1.874586e+01	-1.578111e+01	-2.716534e+00	4.988479e+00	2.010971e+01	3.280661e+01	6.576446e+01	9.224628e+01	1.265494e+02	1.521904e+02	1.779107e+02	1.869131e+02	1.910157e+02	1.796392e+02	1.677240e+02	1.413638e+02	1.122997e+02	6.956829e+01	3.201145e+01	3.411519e+00	-7.795114e+00	-1.838168e+01	-1.665194e+01	-1.525106e+01	-5.467471e+00	-1.193308e+00	5.525424e+00	2.303586e+00	1.539382e+00	-4.833724e+00	-5.299333e+00	-1.106565e+01	-1.060006e+01	-1.371878e+01	-9.585949e+00	-7.363136e+00	6.920796e-01	2.885042e+00	1.239543e+01	1.990452e+01	3.343879e+01	4.115611e+01	4.573379e+01	3.752434e+01	3.366433e+01	2.084059e+01	1.106780e+01	-5.024061e+00	-1.536673e+01	-2.796356e+01	-3.051963e+01	-3.715384e+01	-3.663338e+01	-3.851805e+01	-3.048659e+01	-2.252094e+01	-4.621581e+00	7.273851e+00	2.127503e+01	2.338350e+01	2.778037e+01	2.303510e+01	2.167591e+01	9.916404e+00	1.175389e+00	-1.726615e+01	-2.534831e+01	-3.541506e+01	-3.337633e+01	-3.420349e+01	-2.279849e+01	-1.832976e+01	-2.521393e+00	2.421999e+00	1.440400e+01	1.208861e+01	1.944097e+01	1.181867e+01	2.090623e+01	7.233384e+00	1.658900e+01	-2.818031e+01	1.142898e+02	2.698343e+02	1.591641e+02	-1.752028e+02	-8.035964e+02	-1.192629e+03	-7.190428e+02	-7.970862e+01	-2.995796e+01	-1.551306e+01	-6.534543e+00	-9.927169e+00	-1.866447e+01	-2.625634e+01	-3.214503e+01	-3.129469e+01	-2.952686e+01	-2.506782e+01	-2.163428e+01	-1.550258e+01	-6.689008e+00	4.751319e+00	1.752603e+01	2.919357e+01	3.767245e+01	4.551441e+01	5.988708e+01	7.713800e+01	9.586649e+01	1.132638e+02	1.253458e+02	1.219724e+02	1.050327e+02	7.694207e+01	4.648892e+01	2.407211e+01	6.636340e+00	-1.127617e+01	-2.339569e+01	-3.508191e+01	-4.125085e+01	-4.595113e+01	-4.562034e+01	-4.188613e+01	-2.987117e+01	-1.734088e+01	1.226061e+00	1.529226e+01	2.440457e+01	2.470039e+01	2.502039e+01	2.269496e+01	2.439913e+01	2.025376e+01	1.705877e+01	6.508937e+00	2.206522e+00	-4.074182e+00	-2.511454e+00	-1.715148e+00	4.630572e+00	5.980930e+00	1.242778e+01	1.137149e+01	1.598525e+01	1.083513e+01	9.100356e+00	-4.864455e+00	-1.305627e+01	-3.223857e+01	-3.797963e+01	-4.875750e+01	-4.339460e+01	-4.498044e+01	-2.880489e+01	-2.832817e+01	-1.036511e+01	-2.504415e+01	1.779884e+02	3.155334e+02	2.441319e+02	-1.026784e+02	-7.868917e+02	-1.160583e+03	-6.470654e+02	-2.564332e+01	-4.590081e+01	-3.156397e+01	-3.842668e+01	-1.874398e+01	-1.773245e+01	4.787050e-01	5.912212e+00	2.414179e+01	2.518342e+01	3.152942e+01	2.466516e+01	2.643946e+01	1.840946e+01	1.898545e+01	1.202650e+01	1.665587e+01	2.296471e+01	4.992022e+01	7.827121e+01	1.087819e+02	1.303670e+02	1.558308e+02	1.708020e+02	1.840219e+02	1.832402e+02	1.783317e+02	1.529934e+02	1.122409e+02	5.534834e+01	4.304545e+00	-2.580716e+01	-4.113134e+01	-5.097630e+01	-5.032566e+01	-5.048587e+01	-4.511033e+01	-3.970504e+01	-2.904457e+01	-1.788659e+01	-1.050628e+00	1.185506e+01	2.530309e+01	3.040958e+01	3.170698e+01	2.600570e+01	2.121381e+01	1.060345e+01	2.033180e+00	-8.406535e+00	-1.477771e+01	-1.887385e+01	-1.684764e+01	-1.401132e+01	-4.723134e+00	2.329877e+00	1.175975e+01	1.681932e+01	2.149960e+01	2.199723e+01	2.272374e+01	1.885888e+01	1.389620e+01	3.663669e+00	-5.225739e+00	-1.673172e+01	-2.295582e+01	-2.629387e+01	-2.251487e+01	-1.774028e+01	-1.032126e+01	-6.023317e+00	-3.563784e-01	1.908018e+00	6.297294e+00	8.562974e+00	1.230293e+01	1.314438e+01	1.110089e+01	4.248384e-01	-1.016028e+01	-1.959198e+01	-1.984680e+01	-1.813501e+01	-1.339043e+01	-1.011300e+01	-1.237000e+00	7.522929e+00	1.561927e+01	1.480936e+01	1.175605e+01	5.219108e+00	5.980121e+00	7.639088e+00	1.187997e+01	1.208180e+01	1.188595e+01	5.505976e+00	9.719369e-01	-8.179273e+00	-1.089744e+01	-1.486096e+01	-1.093302e+01	-1.049789e+01	-4.594396e+00	-5.836608e+00	2.501108e-01	-7.215951e+00	1.778382e+00	-2.914527e+01	6.187402e+01	2.780286e+02	2.429112e+02	-3.879660e+01	-7.296566e+02	-1.322084e+03	-1.016656e+03	-2.336203e+02	-2.909980e+01	-4.408497e+01	-1.808461e+01	-1.372535e+01	-5.089741e+00	-3.790874e+00	1.421750e+00	2.061882e+00	2.623200e+00	6.612205e-01	2.087815e+00	5.190815e+00	1.451875e+01	2.802127e+01	4.827801e+01	7.011939e+01	9.274010e+01	1.121063e+02	1.287247e+02	1.424394e+02	1.520474e+02	1.596294e+02	1.686149e+02	1.719343e+02	1.664077e+02	1.501840e+02	1.244753e+02	8.764523e+01	4.352544e+01	4.605546e+00	-1.956072e+01	-3.642290e+01	-4.343502e+01	-4.323223e+01	-3.698892e+01	-3.079369e+01	-2.640208e+01	-2.211813e+01	-1.626261e+01	-1.014575e+01	-3.264768e+00	2.328638e+00	8.077345e+00	1.338546e+01	1.880985e+01	2.073751e+01	2.196737e+01	2.285150e+01	2.423735e+01	2.437679e+01	2.198616e+01	1.735042e+01	1.204578e+01	7.787647e+00	4.254247e+00	-1.644614e+00	-7.977750e+00	-1.387016e+01	-1.530066e+01	-1.372881e+01	-1.237719e+01	-1.236649e+01	-1.121719e+01	-9.791750e+00	-6.313142e+00	-1.719722e+00	1.864263e+00	4.786574e+00	5.828301e+00	2.514874e+00	-2.879466e+00	-9.464286e+00	-1.466408e+01	-1.676627e+01	-1.529463e+01	-1.151147e+01	-6.434463e+00	-2.014259e+00	3.186725e+00	9.136538e+00	1.533209e+01	2.105309e+01	2.359473e+01	2.184690e+01	1.826572e+01	1.327019e+01	5.868547e+00	-2.302872e+00	-1.004854e+01	-1.693552e+01	-2.121274e+01	-2.098298e+01	-1.853935e+01	-1.435951e+01	-8.710022e+00	-2.505254e+00	3.745704e+00	9.691644e+00	1.189434e+01	9.744851e+00	3.257834e+00	-2.610947e+00	-9.662963e+00	-1.472083e+01	-1.668502e+01	-1.397434e+01	-9.902424e+00	-2.118508e+00	3.155088e+00	9.441035e+00	1.464090e+01	2.084844e+01	2.067590e+01	2.092822e+01	1.161678e+01	6.483381e+00	-8.218191e+00	-5.685965e+00	-2.744756e+01	3.081262e+01	2.320707e+02	1.960534e+02	-5.921289e+01	-6.029876e+02	-1.136183e+03	-9.286356e+02	-1.754716e+02	-8.258586e+00	-3.107288e+01	-1.658097e+01	-2.560373e+01	-2.390677e+01	-2.316564e+01	-1.639251e+01	-9.620019e+00	-4.659897e+00	-2.883322e+00	-2.379044e+00	-1.354582e+00	7.580561e-01	6.159548e+00	1.491716e+01	2.807877e+01	4.224553e+01	5.875417e+01	7.212610e+01	8.746294e+01	1.036669e+02	1.207312e+02	1.341733e+02	1.444677e+02	1.476306e+02	1.424261e+02	1.215463e+02	8.955829e+01	4.769563e+01	1.541068e+01	-3.516850e+00	-1.626257e+01	-2.541917e+01	-2.870888e+01	-2.955784e+01	-2.770180e+01	-2.505783e+01	-2.132248e+01	-1.931468e+01	-1.617361e+01	-1.389267e+01	-1.035508e+01	-7.093022e+00	-7.769428e-01	7.449940e+00	1.736409e+01	2.510324e+01	2.915668e+01	2.626572e+01	2.141501e+01	1.415951e+01	7.843868e+00	1.848886e+00	-7.464278e-01	-2.062247e+00	-1.867774e+00	-3.363363e+00	-6.517656e+00	-1.093285e+01	-1.197437e+01	-1.228237e+01	-9.090787e+00	-6.547361e+00	-3.297779e+00	3.425227e-01	3.894761e+00	4.599080e+00	4.046590e+00	-5.002627e-01	-3.246785e+00	-3.083333e+00	1.354576e+00	5.440309e+00	8.502559e+00	8.086632e+00	7.898712e+00	7.555212e+00	7.569767e+00	3.068165e+00	-3.313806e+00	-1.218479e+01	-2.022507e+01	-2.624073e+01	-2.761960e+01	-2.711607e+01	-1.968504e+01	-9.959564e+00	4.334486e-01	7.889542e+00	1.300829e+01	1.399268e+01	1.657585e+01	1.643612e+01	1.668752e+01	1.386937e+01	1.104483e+01	5.887775e+00	3.079053e+00	-4.325954e+00	-7.017692e+00	-1.695312e+01	-1.169561e+01	-3.011573e+01	6.055794e+01	2.859170e+02	2.682088e+02	2.792723e+01	-6.281282e+02	-1.273777e+03	-1.062892e+03	-2.570487e+02	-2.143478e+01	-4.910696e+01	-1.576587e+01	-1.464923e+01	-3.269193e+00	-9.414708e+00	-6.026014e+00	-9.813209e+00	-4.006812e+00	-1.627203e+00	6.586484e+00	1.024560e+01	1.920142e+01	2.710111e+01	4.515579e+01	6.402668e+01	8.675359e+01	1.093196e+02	1.356371e+02	1.611740e+02	1.870731e+02	2.056961e+02	2.214125e+02	2.248467e+02	2.232990e+02	1.985514e+02	1.688719e+02	1.267205e+02	8.158127e+01	3.489651e+01	6.585514e+00	-9.140499e+00	-1.702888e+01	-2.213060e+01	-2.274146e+01	-2.477139e+01	-2.505357e+01	-2.504773e+01	-2.141918e+01	-1.955743e+01	-1.729485e+01	-1.631262e+01	-1.197708e+01	-7.010837e+00	1.295658e+00	6.133210e+00	1.141173e+01	1.336151e+01	1.696645e+01	1.958781e+01	2.279514e+01	2.334626e+01	2.391314e+01	2.203350e+01	2.306277e+01	1.981181e+01	1.514156e+01	5.531465e+00	-3.648424e+00	-1.137171e+01	-1.337986e+01	-1.389662e+01	-1.019192e+01	-6.904664e+00	-3.087004e-02	4.480536e+00	8.075280e+00	5.867273e+00	3.588829e+00	4.980211e-01	4.301430e-01	-2.423712e+00	-8.649987e+00	-2.060665e+01	-2.978763e+01	-3.564235e+01	-3.352365e+01	-2.915943e+01	-2.300379e+01	-1.853439e+01	-1.549944e+01	-1.317369e+01	-1.486679e+01	-9.489133e+00	-2.641192e+01	4.124314e+01	2.707190e+02	2.566267e+02	3.742741e+01	-6.198704e+02	-1.265731e+03	-1.075263e+03	-2.587281e+02	-4.875767e+00	-3.903728e+01	1.049412e+00	-7.449129e+00	4.106546e+00	-5.075268e+00	6.773281e-02	-8.895486e+00	-4.143324e+00	-9.736265e+00	-3.684048e+00	-8.524050e+00	-3.832706e-01	3.860500e-01	1.977468e+01	3.504209e+01	7.451879e+01	8.929548e+01	1.369627e+02
