-2.266803425105093694e+00,-2.142852457340526584e+01,-1.406719286970268001e+01,-1.286047386306782414e+01,-7.919901364927877552e+00,-5.855298043966285171e+00,-3.162279770487034902e+00,-1.872790177581888038e+00,1.972167590459225295e+00,6.678268042061469956e+00,1.403680761000355837e+01,2.484955398802248538e+01,3.653690198149270429e+01,4.762256737920262140e+01,5.650467655723796412e+01,5.602394483537215564e+01,4.949317596932434071e+01,3.903888714134811266e+01,2.811732610574318514e+01,1.782885465622766219e+01,1.090139840104094660e+01,9.270173291593472698e+00,7.801705358324295680e+00,6.293793636677283310e+00,3.887291686789490885e+00,2.689127371049497839e+00,1.114684556449585973e+00,4.978873594243487383e-02,-1.052670051502036186e+00,-5.873485201599338845e-01,-8.171108596877705299e-01,-6.907791552718991479e-01,-1.278402223267658178e+00,-1.348156751381524909e+00,-2.644523130967046498e+00,-2.524313972568721809e+00,-2.480875551267605950e+00,-1.353518860083856357e+00,-1.310339160427024918e+00,-3.751270157249564363e-01,-5.907828166359395672e-01,-3.103000237069666323e-01,-1.936786340357207425e+00,-2.823568587618572323e+00,-6.878508573329944475e+00,-1.137176329724097812e+01,-1.649705134926638550e+01,-1.748017163903719506e+01,-1.714837461470117219e+01,-1.363610748168606612e+01,-1.125803081804884265e+01,-6.111671532899723758e+00,-2.657067564085111577e+00,1.759154066567050423e+00,2.940661706752200732e+00,4.366539345721617060e+00,3.845593852195913431e+00,5.392024472362125564e+00,4.718229945263448855e+00,5.093359679727993417e+00,3.194531392020187432e+00,3.627770942940668597e+00,2.481980957180317304e+00,3.408234716801353592e+00,2.711408637463670335e+00,4.481641946711318880e+00,3.519310252643377268e+00,4.115904779695587656e+00,1.884257459958602388e+00,1.979434615781781037e+00,-1.446336793026508638e-01,8.889331738930472682e-01,9.924887510083355013e-02,1.386225366019298910e+00,-1.655220392780576422e+00,-2.497516157134832326e+00,-4.742068021839810577e+00,-2.338314804187556994e+00,-2.249632780516980457e+00,7.690603889004342664e-01,1.458077952121035192e-01,1.895199043418141160e+00,-1.219179788916902929e+00,-8.345892088972498568e-01,-3.045902323285164304e+00,-5.243509522069246254e-01,-2.465115119325230086e+00,-1.351095146200357866e-01,-1.913204110666971491e+00,1.956130580105801986e+00,2.081124878863695182e-01,4.234082251591084756e+00,2.057449389111128735e+00,6.519722054701221126e+00,2.986583047829129978e+00,8.029464028952519428e+00,1.922922991998211151e+00,5.055594109685786819e+00,-1.600811575362098083e+01,-9.630066170209111931e+00,1.733112209835699389e+02,5.485726257174305829e+02,4.069198006993569834e+02,1.220118389734900148e+02,1.106098333553027828e+02,5.259143058048755393e+01,1.219192326284587402e+01,-6.438675541889769427e+00,-2.590066948539961889e+00,-1.161082897620108589e+01,-7.434950874109110153e+00,-9.206562215716974862e+00,-3.792994294643722508e+00,-6.145403411861710907e+00,-6.286765703410306827e+00,-1.251447052675726646e+01,-1.205860981153239919e+01,-1.184814401791024530e+01,-6.592943148594064162e+00,-5.644619374947141388e+00,-3.741627486501016620e+00,-3.606767497121959654e+00,-5.507260031336060901e-01,1.098635441062244977e+00,5.783561660059475251e+00,1.304149058458579091e+01,2.541841811061210166e+01,3.535707852537995421e+01,4.459915165364690637e+01,5.063135040300591072e+01,5.409267790228101802e+01,5.363242975369173848e+01,5.221563751788088581e+01,4.762215014261788326e+01,4.112607405709361785e+01,3.069988272039972443e+01,1.989738890983267083e+01,1.065369846796335374e+01,6.886200473643231845e+00,5.430497070748896427e+00,5.584134170360978366e+00,4.629917241285586904e+00,3.265511658905360104e+00,1.078596601141856848e+00,-7.285205676485595472e-01,-2.219805346452892181e+00,-2.989966286280924646e+00,-3.934048723994920671e+00,-4.706936340041716349e+00,-5.683862574079454610e+00,-7.057196225510345755e+00,-8.910111841925932197e+00,-1.024760337457365900e+01,-9.691679583942821807e+00,-7.064184520236327813e+00,-3.850052486239078586e+00,-2.363723293808586590e+00,-1.284112822383586927e+00,-5.210134975062697960e-01,1.758146178806203608e+00,3.016290838588739476e+00,3.649012570941291056e+00,1.948971450188245358e+00,2.552155496588631722e-01,-2.307605345692992138e+00,-3.566506875112316788e+00,-4.957855547096899684e+00,-4.225010869635705824e+00,-3.719107017306166441e+00,-1.598521461249687192e+00,-2.283452162269110353e-01,2.413909373752314735e+00,3.282704749732790361e+00,4.394611466338497863e+00,3.497246376499749232e+00,4.364304511571902800e+00,4.093149664578890068e+00,5.634069965841388417e+00,5.194316959663294320e+00,5.942090628385928497e+00,3.586826278764370102e+00,3.311159009688580568e+00,1.436141538313966848e+00,2.589643418647796125e+00,9.726628587867329756e-01,2.422320268809125210e+00,1.319770102403948986e+00,4.000228956334543007e+00,2.493314140655440880e+00,3.538151355444657309e+00,-2.445865226305271367e+00,-5.478442176644482409e+00,-2.353089620628574608e+01,9.326391216899050818e+00,2.526049844278429362e+02,5.404581485159096701e+02,2.742072370401502894e+02,9.694617852125949753e+01,1.078287482045230945e+02,4.998056755997342293e+01,8.667011812352292566e+00,-1.890790049310913545e+01,-1.579722756966396346e+01,-2.275622588162087467e+01,-1.842025427491665113e+01,-2.045056487259597588e+01,-1.637459584928361878e+01,-1.780450286546438576e+01,-1.350799802517707704e+01,-1.166409263542779762e+01,-4.941670090734710641e+00,-1.859474220560311863e+00,1.991741013374083824e+00,2.504536897131167894e+00,5.490494985879431411e+00,6.208234913551294198e+00,7.997079086510922252e+00,7.930886210965102379e+00,9.900527671524882223e+00,1.410265925589994573e+01,2.332723952214316299e+01,3.265031452406778101e+01,4.253722315653024566e+01,5.214265832397620670e+01,6.035438985022651792e+01,6.311005136979855479e+01,6.350101450487666455e+01,5.858591464125365178e+01,4.903598887848610133e+01,3.545932011558133468e+01,2.223281046573686126e+01,1.084895676237782247e+01,4.525437442595814375e+00,5.117512695385634247e-01,-2.918300583686670890e+00,-3.928563322430913107e+00,-4.397275362212837102e+00,-4.064143842929541783e+00,-4.562690920360865654e+00,-3.121638424014718805e+00,-1.459877807189583043e+00,1.632371228582296219e+00,2.920599170696469571e+00,3.614051236924979982e+00,1.394380523312795495e+00,-4.153872282773140023e-01,-3.865251317914366158e+00,-7.819222063632155439e+00,-1.437600341552390582e+01,-1.579296117378570585e+01,-1.393121157862381132e+01,-7.291956280956703118e+00,-3.365361738693264826e+00,8.492660566970109404e-01,2.225622701229552636e+00,6.101450346111739087e+00,8.575270151257546658e+00,1.525642356937019173e+01,1.804444794647571371e+01,2.091782713354048440e+01,1.605368706359660180e+01,1.157238930966530788e+01,1.735619249877678349e+00,-6.838394670766865246e-01,-5.224237623719368173e+00,-3.225345012508463505e+00,-7.824227377509299863e+00,-4.285212786576487964e+00,-5.843077242547757066e+00,2.460972926454668919e+00,-1.691624286772447805e+00,3.602790011548957949e+00,-9.783786313904499821e+00,1.843473244306977676e+00,1.465722404273109305e+02,5.295813982300462612e+02,4.576309276801939063e+02,1.486572706328452682e+02,1.428681377422838068e+02,6.585861285330294379e+01,1.212268615747283462e+01,-1.762803824649979134e+01,-1.463462703716668045e+01,-2.388002144644411828e+01,-1.860855112383374887e+01,-2.098704702211807316e+01,-1.454303946656711233e+01,-1.440647879439591250e+01,-7.853376405162655338e+00,-7.350728008165086536e+00,-2.221109063520358529e+00,-3.000787050860640903e+00,4.943497368294323957e-01,1.752461406225047647e-02,3.734625216462628128e+00,4.148101164610403124e+00,8.236516618683404900e+00,8.784063185536998830e+00,1.328378818378302917e+01,1.523690012724857823e+01,2.160895593706196394e+01,2.621876505538816815e+01,3.348054475411272080e+01,3.819475930126576202e+01,4.438579990343830417e+01,4.697541692624790244e+01,4.833570922383549373e+01,4.364371540416635753e+01,3.788178068321244041e+01,2.841892589101529154e+01,1.979831780318202306e+01,1.223063970437815939e+01,8.291898145275164111e+00,3.650234679909416968e+00,4.234535158043436498e-01,-4.436160115523391845e+00,-1.011663039861732472e+01,-1.861978322106138606e+01,-2.485014476938704320e+01,-2.806898562298679423e+01,-2.719670554219680625e+01,-2.462854804175960055e+01,-2.041153227326636710e+01,-1.587524286722017841e+01,-1.050243697699427692e+01,-5.447755615401561613e+00,-9.049090129864678644e-01,3.768914721312150107e+00,5.685273499777039774e+00,5.765701513120264465e+00,3.446694950657951839e+00,1.636864630832546297e+00,-1.252617193783632121e+00,-2.789606293674903537e+00,-6.580929437409827720e+00,-9.903800137788405067e+00,-1.516091384699132405e+01,-1.354067500068788377e+01,-9.215029677803171282e+00,1.201263785205743062e+00,6.919878362667924776e+00,1.500361383509481961e+01,1.498878641678250645e+01,1.929600564030314302e+01,1.423440027157422350e+01,1.607931787003336410e+01,5.728751671909021681e+00,6.041453351083104550e+00,-1.671188216813445493e+01,-2.207377807014513849e+01,1.158108886625202132e+02,5.027806970572042928e+02,4.464619987012495130e+02,1.145280606622644655e+02,1.133689729551308574e+02,5.717193492661314735e+01,1.668683363507343742e+01,-1.173085928366089981e+01,-1.096545253272928067e+00,-8.973672847969217159e+00,-1.889922831808901638e+00,-1.013824881588145566e+01,-6.746520039811841229e+00,-1.388751400462945185e+01,-1.216203460365134248e+01,-2.104984652518960786e+01,-2.184554745556329181e+01,-2.837645300157657857e+01,-2.531775877873890224e+01,-2.732742578776487363e+01,-1.873484035171670570e+01,-1.246717231272843662e+01,1.294729897103086280e+00,6.801304033837443974e+00,1.894185336863013802e+01,2.492729204675737265e+01,3.539046094039974122e+01,3.879883453112240232e+01,4.603798014895464519e+01,4.564074083328721088e+01,4.661743081060890859e+01,3.894209201525391251e+01,3.456535599008427795e+01,2.438360193029920708e+01,1.884993215999301697e+01,1.034799225073032858e+01,9.601254304080450552e+00,6.160081887882109086e+00,8.705351330879350868e+00,5.986981811403794929e+00,6.931633622355377611e+00,1.945808593326969094e+00,9.362181150942510133e-01,-5.182572577790647728e+00,-6.900457077000886841e+00,-1.392508797028698808e+01,-1.635762037960902759e+01,-2.192468775778612766e+01,-2.087994070051738404e+01,-2.244556753122047610e+01,-1.753573378120142578e+01,-1.646315946440535072e+01,-9.512180010304350120e+00,-6.574647006152182449e+00,1.570309333508747018e-01,1.440410241963805404e+00,5.667684499993276503e+00,4.022270945333249692e+00,7.044628861196926550e+00,5.779611878458732477e+00,8.668875628827139579e+00,6.437672598099900334e+00,7.255229606317955771e+00,2.475146228288314987e+00,1.833449908165481590e+00,-3.193155615728707986e+00,-2.784039532181447285e+00,-6.952579874511563673e+00,-5.718220210594458841e+00,-7.794447051494092449e+00,-3.920119185117447280e+00,-4.560155811662623293e+00,-4.074719428528740806e-01,-1.592624737629213749e+00,2.766547629275283082e+00,3.055926461501534686e+00,9.366430322224100991e+00,8.411565601722696073e+00,9.746709230801547719e+00,2.679732890539031853e+00,1.496914055306225233e+00,-3.995921021536094742e+00,-4.082948648212479270e+00,-1.184888753856908927e+01,-1.309253753481571714e+01,-1.712617889191700371e+01,-9.314048405041875256e+00,-5.899058138387261785e+00,3.749262872705071636e+00,3.292129988665852380e+00,9.058492710183399410e+00,5.889646857098212784e+00,1.229606129898652789e+01,8.449339846002766663e+00,1.424322269577749012e+01,4.273825582404900736e+00,6.211556034374051904e+00,-1.363661402293243441e+01,-1.016740417101151728e+01,9.540335663898848395e+01,4.493653734954612560e+02,4.413644921072798866e+02,1.225955854020069040e+02,1.067374933091982712e+02,7.117503246439957820e+01,2.303747762129605547e+01,-3.350572603216184664e+00,1.091066514120418995e-01,-6.012588285858118553e+00,-3.335299411040741013e+00,-6.472412679532820512e+00,-8.442874511391279313e+00,-1.712250830846363314e+01,-2.167835822733559326e+01,-2.410812334378666222e+01,-2.101771036046492824e+01,-1.920408559222278555e+01,-1.688232072315599908e+01,-1.671179854416738308e+01,-1.387042589736905995e+01,-9.255018183393124431e+00,-3.401365420116595040e+00,6.472922241601221094e-01,4.075763879618643060e+00,8.500333105329897165e+00,1.724359586605977057e+01,2.595390372098190923e+01,3.325657388548645343e+01,3.851909805093384875e+01,3.998471738262886532e+01,4.267798479975891013e+01,4.304199545202840937e+01,4.026448871906519145e+01,3.385637687450058309e+01,2.678374905783325843e+01,1.979782938452226659e+01,1.411760092478197492e+01,8.071268673629687029e+00,5.640249349158456660e+00,1.493988546164050746e+00,-1.085565523314274916e+00,-5.101341628389572946e+00,-5.337841007889097433e+00,-5.716219862039750410e+00,-3.888626054531679088e+00,-4.798243015850609083e+00,-2.756762183373770103e+00,-2.447046177572242964e+00,4.223406331651960999e-01,1.513598146092859920e-01,1.828767511539200585e+00,-6.937875980660319908e-02,2.164883841950257237e-01,-2.050387244860081282e+00,8.425035399145811565e-01,1.531998033702053563e+00,4.943839654111449988e+00,3.326538165253214441e+00,4.973581971273763891e+00,2.442771224873945268e+00,3.671416789053040475e+00,-2.229216170832951441e-02,2.066327556140879818e+00,8.213271965587483348e-02,2.538030802565611310e+00,-2.729414697589057415e+00,-2.533234929672052882e+00,-8.906743788536799045e+00,-8.466062112923630423e+00,-1.517527258782127220e+01,-1.028082538325659456e+01,-1.138534297532994088e+01,-3.151974734261625000e-01,-4.693852604403732975e+00,2.965624284591207971e+00,-1.601863270639125858e+01,-1.704238595320293204e+00,1.387286099904006278e+02,4.962575655505677332e+02,4.002349528867991921e+02,1.224507866439592618e+02,1.185433424419114772e+02,6.225792510973244021e+01,2.277009199149214425e+01,-1.377295042084016075e+01,-2.582866884225500037e+00,-1.210611724790163457e+01,-3.262487378509420388e+00,-6.270920337984257742e+00,1.836634446583331304e+00,-2.529935538698754094e+00,1.532440366182258096e+00,-2.722271647466365962e+00,1.450424566139369986e+00,-1.356183066865350950e+00,3.168348834153516425e+00,1.433387857356147599e+00,5.202639467636537063e+00,2.877151219974852570e+00,6.971458175349326325e+00,8.630798249321919968e+00,1.842294337297214213e+01,2.655770345119903197e+01,3.875918319531292155e+01,4.689319528632818646e+01,6.013339702208095616e+01,6.429497680865280529e+01,7.030698928957461646e+01,7.074097427590486120e+01,7.200898818645848110e+01,6.195898366025006965e+01,5.307173793622090585e+01,3.980266620848555448e+01,3.012938717171845937e+01,1.896972068592726757e+01,1.324098621426064426e+01,7.170262765183146314e+00,5.445194204855098086e+00,1.389961440640051116e+00,-4.922491222884251560e-01,-3.699680733496903517e+00,-4.028316427891097895e+00,-7.222171169785783107e+00,-9.118565940684964843e+00,-1.258141249669842665e+01,-1.205368637878324556e+01,-1.231844622118067889e+01,-9.500834999432438366e+00,-7.427795020779659474e+00,-3.248990935866409302e+00,-2.413909144149557928e+00,-1.439374524655060661e+00,-3.143880641120922803e+00,-2.431831260063940903e+00,-2.831269161206222851e+00,-6.196293276738888967e-01,-2.448214023495486336e-01,1.430633248659453294e+00,8.390532604537526140e-01,2.429685045783519737e+00,2.402850174229234970e+00,3.466446467407435339e+00,1.261034700283248267e+00,7.442065462106203233e-01,-6.704368471236136218e-01,1.030827947962633440e+00,1.067534374354733195e+00,2.754327733422595070e+00,2.169891355748317263e+00,3.664590052854633573e+00,3.708967427153296637e+00,5.506730631851869617e+00,3.870059546804592188e+00,1.753797942613104510e+00,-3.024711630042971500e+00,-4.499878764848209478e+00,-4.965464863195901302e+00,-1.755718394660563453e+00,2.677680940975180612e-01,3.058757918943082021e+00,2.500858732017068320e+00,1.805700532517088064e+00,-1.025911955276594290e+00,-1.965476077752765782e+00,-4.492437105153121557e+00,-4.951675017522865652e+00,-6.057287126946901523e+00,-4.413983828039544477e+00,-3.929983558262007293e+00,-2.554951675368571706e+00,-3.224269497794975514e+00,-2.200175910573647808e+00,-2.397465986709055308e+00,-1.538266614548840228e-01,1.698824684963887055e+00,6.846560240068902736e+00,1.044601311599188520e+01,1.323830005624866857e+01,1.086590533963944161e+01,7.647972040294265028e+00,1.101268238975811498e+00,-1.407145242217054726e+00,-3.561996975180089731e+00,-9.890005010167022270e-01,-1.337454931530982272e+00,2.013511929202490558e-01,-1.761069368546646308e+00,1.738689671522539060e+00,2.445141902268672229e+00,8.066734301272243002e+00,5.417730488445556603e+00,6.278652449681480618e+00,-6.928423194155636011e+00,-1.486919104894124111e+01,4.778199202460851325e+01,3.696661172934537376e+02,5.563641257212090068e+02,2.220481397029089408e+02,1.056400419687264787e+02,8.244603734936180217e+01,1.993935124384039170e+01,-6.306818881542236355e+00,-6.567655255959265581e+00,-4.931779603521933453e+00,-1.865345089495973774e+00,2.026282762214851374e+00,2.699840879532868332e+00,1.559905953508044840e+00,-2.090283033309110916e+00,-5.716697385644676110e+00,-1.144672229422476306e+01,-1.678766992893083554e+01,-2.040068759698209533e+01,-2.071393606664503650e+01,-2.070565882595667517e+01,-1.905050456468541498e+01,-1.554837107693809628e+01,-8.102493049781335444e+00,1.282297226277866908e+00,1.291397387040430011e+01,2.406721171493676081e+01,3.416324813950690498e+01,4.117159529486221459e+01,4.706842702550579816e+01,5.046511978371722762e+01,5.039410014360805690e+01,4.646113877580643248e+01,4.127487459798516767e+01,3.419338526393959654e+01,2.488215793698541489e+01,1.469291098329291323e+01,5.795945357871265635e+00,5.685627227887977142e-01,1.871164632430940555e-01,5.090148511874140747e-01,1.121693844361728365e+00,2.332279044875684715e+00,5.398333866495669930e+00,7.363579326668255653e+00,7.945765077993231174e+00,6.048400834419551231e+00,3.572685080208659159e+00,9.332812437666714311e-01,-1.614556421006193565e+00,-4.119344963867677123e+00,-7.428275242741586126e+00,-1.116220078533667959e+01,-1.251300688594834298e+01,-1.113023643588790534e+01,-8.975623134954888727e+00,-7.977522323531364812e+00,-7.572959382902830328e+00,-6.329952469005638349e+00,-4.012028030508516530e+00,-2.174470144984680609e+00,-5.038922556161645749e-01,1.168179880327239628e+00,3.249154078087322262e+00,4.800971390801106686e+00,5.070898139367749025e+00,4.104803543761561535e+00,3.295152700866277318e+00,2.489833479681732076e+00,2.063089745572793010e+00,1.489324413613010378e+00,6.213645955720349390e-01,-9.571306811017479266e-01,-2.085187379458717238e+00,-2.142792808212589772e+00,-9.693852276252858946e-01,-4.781407575074467231e-01,-2.602776994360269103e-01,-4.187092050847357472e-01,-3.009219599060561912e-01,-4.078589079797875772e-02,7.867396842482805575e-01,2.055207418080099213e+00,3.337047485716839290e+00,3.847691785918828433e+00,4.212592960967100453e+00,4.501232482347078623e+00,4.038659897110797203e+00,2.906860009996057759e+00,1.394152147627433003e+00,-3.252661193328094946e-02,-1.762479358442132993e+00,-3.758232599923791994e+00,-5.133604843470114254e+00,-5.969415868774601286e+00,-6.119952719002714758e+00,-4.878328124588880321e+00,-2.013983616589012815e+00,4.269454872364060183e-01,1.369772316840500270e+00,9.227768225376173916e-01,4.123110108565164467e-01,-3.975516857278233451e-01,-1.393896422558561055e+00,-2.561499197005151274e+00,-2.990655488126737538e+00,-2.320475606677506519e+00,-1.485733520210889447e+00,-1.855573052281362711e+00,-3.399932627775037020e+00,-3.890970470475103138e+00,-2.328322057043219484e+00,1.419318089554598705e+00,4.357516016637406508e+00,6.243492082025756673e+00,6.043990696637111526e+00,5.668949417362089349e+00,4.886132465176793893e+00,6.566545577300179737e+00,5.971848209682462993e+00,5.873924629074256387e+00,3.389357558221507194e+00,5.011067589504260233e+00,3.651655022328060607e+00,4.519931166613962326e+00,-4.289251146242200718e+00,-1.472353876318145893e+01,2.563792876849077018e+01,3.110003600362274483e+02,4.849869567389509371e+02,1.713841515821121675e+02,8.944413609110267771e+01,8.440963483088370367e+01,2.877874863384103321e+01,-5.522159616764792389e+00,-1.073888417408871199e+01,-1.312723437256383363e+01,-1.590300576393480370e+01,-1.491190367505642556e+01,-1.197018263518222625e+01,-7.822286155972126842e+00,-5.412400232821886981e+00,-5.754122148444196228e+00,-6.035777155730117194e+00,-5.780611501063407154e+00,-4.250091022656924622e+00,-3.270752682928184996e+00,-1.028132124906719236e+00,1.646155134356754646e+00,5.650139340098228935e+00,9.583269961891724975e+00,1.633771619162957833e+01,2.395901479076838925e+01,3.372212515672085686e+01,4.142386513200123943e+01,5.153737422945184932e+01,5.879234400954591422e+01,6.249528249826014559e+01,6.291956870585836725e+01,6.252938660410060834e+01,5.918830700910874043e+01,5.309885207111787508e+01,4.349366660071626711e+01,3.466487367853701329e+01,2.454881746334789483e+01,1.562946493122845837e+01,8.778842754657532055e+00,2.687011436672158027e+00,-3.055317802646517755e+00,-6.866386736470602159e+00,-9.454657951758054679e+00,-8.145315383471936954e+00,-6.614420368791852134e+00,-4.855155711635477545e+00,-4.637629173937400928e+00,-2.777265522640582240e+00,-1.118811254842938752e+00,1.505394736221022489e+00,2.521674883166389325e+00,4.067865269085451096e+00,4.196570584241138491e+00,4.165100167005236109e+00,1.969533876800473315e+00,6.676925647149328791e-02,-2.067683899977768469e+00,-1.968097117156098808e+00,-1.631892722455169364e+00,-1.198870255157767017e+00,-2.152388672572775441e+00,-2.634546265473677540e+00,-3.101349997533743963e+00,-2.716255271721891962e+00,-3.078162364532663009e+00,-2.576632698298543467e+00,-2.136824320218436934e+00,-6.337067487556459211e-01,-2.324668936000320318e-01,2.191721894570468343e-01,-4.053774168398810440e-01,-1.453183669570156933e-01,-8.928424282828469893e-01,-1.470473431375168838e+00,-2.782135015323688343e+00,-1.819205483191469241e+00,-6.785766179987157143e-01,1.108885521528024443e+00,2.023465546402218873e+00,4.294884247275994937e+00,4.814650131209155859e+00,4.761231119440028969e+00,2.263886377787597493e+00,1.143298815555620962e+00,-1.067324944524138841e+00,-2.468511329032031298e+00,-4.081667549425746166e+00,-2.602384061959730932e+00,-1.679997907374079169e+00,-1.423741440485297161e-01,-5.803593907357681991e-02,1.628194387190277981e+00,1.518787358278183675e+00,1.690889650039685499e+00,6.036174218222172261e-01,1.904905585903297727e+00,2.805564413077201280e+00,6.150449986041796713e+00,7.897268912648971906e+00,1.019018667814092360e+01,9.274179959249970295e+00,8.337475192378278166e+00,4.545259817169211125e+00,2.510190741996048303e+00,-9.295974706007168464e-01,-1.262119625145429858e+00,-6.258688128424948260e+00,-1.126270172987313778e+01,-2.117078907665637644e+01,-3.064226971488549367e+01,2.753024076893022709e+01,3.385738548263348662e+02,5.611705926109198117e+02,2.508616875682014040e+02,1.187314499754827466e+02,9.745913639556664521e+01,3.641923214507030337e+01,-1.524670297794313290e-01,-1.021540161361517463e+01,-9.618349716888097589e+00,-1.578185625357473754e+01,-1.442039375812328039e+01,-1.498298005412230260e+01,-9.413158714009972172e+00,-7.984690431501670460e+00,-4.303829034814649290e+00,-3.606568801907219957e+00,-3.341945115636889008e-01,-7.395299211799764016e-01,-5.040486400212161877e-01,-2.227760736350270054e+00,-3.965197760283714068e-01,5.706244641083845215e-01,4.848086762447710640e+00,1.013006074241455146e+01,1.869379815431823744e+01,2.732664457969314853e+01,3.610634748353347590e+01,4.075600482510463962e+01,4.955034399094068931e+01,5.656977482054641371e+01,6.112114689968995407e+01,5.967037659517648507e+01,5.496174331599403473e+01,4.463238915849147759e+01,3.281254606072145208e+01,1.968390367732695623e+01,9.029687111516350839e+00,2.746824629930989303e+00,1.993475654232941541e-01,-1.987989263008638208e+00,-8.123262749840827190e-01,5.486414744616530115e-01,3.223837951807824176e+00,3.311897242528216267e+00,3.119504032505871383e+00,1.302405187641794360e+00,1.253553798144718456e+00,3.644453414162417415e-01,3.644957398069091636e-02,-3.612543149726274549e+00,-7.926451684122572949e+00,-1.284429682865939881e+01,-1.421537025607071314e+01,-1.427423825919109746e+01,-1.161594023816726740e+01,-9.085937169822315695e+00,-4.717355136468408539e+00,-2.189867176181145680e+00,1.459080455940807708e+00,3.879816489638746368e+00,7.071755528826085602e+00,7.413303054248811641e+00,7.446282295730580536e+00,4.800829435423857205e+00,2.517691413961601565e+00,-2.007144879762748246e+00,-5.494056135033263288e+00,-1.077472008495792011e+01,-1.239343933045594071e+01,-1.196013449202799350e+01,-7.338356867534248984e+00,-4.125015214481181580e+00,-4.671959784173814190e-01,1.518205709293783068e+00,5.887343309171582995e+00,8.260524393334804927e+00,1.100183947898035264e+01,1.061395124492931075e+01,1.104945166440646354e+01,8.966640024182096269e+00,8.149872103430459092e+00,4.618969742175350390e+00,1.774352169399251666e+00,-2.978578661206823242e+00,-5.352255488339614509e+00,-7.639954124658834722e+00,-6.128706714454459359e+00,-4.092319280537017434e+00,-1.084764280360148492e+00,-9.186472320887260901e-02,-4.228194159414386810e-01,-4.236122919485397986e+00,5.133120727170663145e+01,3.663327007348548250e+02,6.009365778430160390e+02,2.738413833049713162e+02,1.324205600638642579e+02,1.193830880754844088e+02,3.751579651870660825e+01,-5.134589872380864506e+00,-1.349766674548573953e+01,-1.121760613551797015e+01,-1.024161187855266597e+01,-4.874083672322115035e+00,-2.782673114554930383e+00,-6.045158063469417975e-01,1.704893566756772616e+00,3.940960723469579374e+00,5.423013447649072560e+00,3.649405017718652999e+00,2.369132901074994191e+00,-3.128717656034132322e-01,-2.873291578757067311e-01,-3.167010595195563383e+00,-5.629519921327446469e-02,4.205860905544221429e-01,1.606477413849933455e+01
-1.214039509166491948e+00,-2.056608797661520427e+01,-9.871287987194461877e+00,-7.278526642814540537e+00,-6.095370158888592016e+00,-3.267392689538432649e+00,1.025407045039010923e+00,1.034421028431391676e+01,2.872915514125085679e+01,5.500725844461295821e+01,8.000940413111666771e+01,1.020926224864282545e+02,1.196850950511790046e+02,1.379724052629519235e+02,1.484699728183134653e+02,1.540601399686097750e+02,1.511761441150789267e+02,1.429328178401165133e+02,1.226244993454820928e+02,1.009392360289216555e+02,7.454896811125057354e+01,5.054729723763594507e+01,2.663323354219686223e+01,1.202845306753449250e+01,3.203827852185222369e+00,1.375448813121044278e+00,-2.835368076465791365e+00,-4.138063222564163368e+00,-7.442690434429545476e+00,-7.034178032591746899e+00,-9.109964410270757540e+00,-7.139139532972994751e+00,-4.547715173897133312e+00,4.654308030743959712e+00,1.018111852942341677e+01,1.409894637216318181e+01,1.070908127699871670e+01,8.526727878278919093e+00,2.726894815749664858e+00,5.326455865353025843e-01,-3.700886782296723965e+00,-3.553107384438671357e+00,-7.062269816578195858e+00,-8.555670779771698875e+00,-1.326426634696895235e+01,-1.385863856223514290e+01,-1.630158983381902971e+01,-1.371602594001539899e+01,-1.241756691718605765e+01,-6.174334232043143800e+00,-3.581336643269937614e+00,2.151866414866433708e+00,2.512788651793555150e+00,6.614030867097335786e+00,5.794215077046526829e+00,8.894863406896668323e+00,6.052195420928374148e+00,6.388157760801029816e+00,-5.134537861752105914e-02,-2.172997106139458179e+00,-8.233767058604625433e+00,-7.120472596139909349e+00,-1.006722894717582406e+01,-6.915606735237796343e+00,-7.838771685947644841e+00,-2.934693592135389828e+00,-4.329490759790921572e+00,5.959714962875223287e-01,1.557601005379721792e+00,8.958729946721202708e+00,7.749965613380412677e+00,1.074800675190113353e+01,7.219605696001925033e+00,1.229375284171117322e+01,1.015849684777554529e+01,1.397351903746659119e+01,9.037227129741619791e+00,1.093883859922650714e+01,4.287121635751068638e+00,5.076320437367796146e+00,-3.684348915943462810e+00,-3.642103511274501049e+00,-1.281417046803406734e+01,-1.128704705951344245e+01,-1.837627830536705531e+01,-1.166115238856473013e+01,-1.469961575434742329e+01,-3.941595186466991585e+00,-7.082375751311407619e+00,2.813776895309177295e+00,-3.853379964112280121e+00,4.859477989830100597e+00,-5.271964413281377659e+00,3.817735584577703012e+00,-6.716623624951579608e+00,1.047397643408594980e+01,-3.071898257138584665e+00,1.363680739025282129e+01,-3.440296486036441337e+01,3.533371269471479081e+01,3.142501122959727695e+02,8.119774916948105101e+02,8.126446336875947054e+02,4.973881266782345278e+02,-4.879585764410917292e+00,-2.392900703272596274e+02,-2.702285591817787491e+00,-1.627600720748292673e+01,-4.941745905725844601e+00,-1.468495817236257750e+01,-2.652871344428474831e+00,-7.876884705987264645e+00,1.755810209862201265e+00,-5.640539486651658052e+00,-2.144264902436931575e+00,-8.956857926734583586e+00,-3.303064310712356288e+00,-4.102874979026313262e+00,3.943542848153104075e+00,2.887092804025975568e+00,6.762133977936999329e+00,3.406563070830251672e+00,6.514549723168035378e+00,5.773006211205544247e+00,1.344459863335198158e+01,2.484837354481479110e+01,4.800935639013950862e+01,6.845527088459670040e+01,9.225524214739991180e+01,1.114997211051816066e+02,1.347818490435035415e+02,1.509184709366627430e+02,1.582640076390031254e+02,1.466299117588503975e+02,1.269278881147147615e+02,9.647000044589447043e+01,6.788373847732989930e+01,4.023429624169165209e+01,1.682925981425082185e+01,3.625468556369999540e+00,-2.526535274498560302e+00,-5.453511536555581074e+00,-5.754408270094613975e+00,-5.837853667202307584e+00,-5.079641282598866603e+00,-3.001718335745611199e+00,8.261208783595634930e-01,4.141061841880967265e+00,4.363362834376766308e+00,1.708638965447312863e+00,-9.601699706639280629e-01,-4.065335950727109182e-01,2.050136197056109388e+00,4.836653370970907417e+00,5.259626276116425636e+00,4.227148908755451906e+00,5.031066446669749670e-01,-1.082257292672165194e+00,-1.766544576890761054e+00,-1.422883047405473222e+00,-4.671665048300268630e+00,-5.748939202027174566e+00,-6.610598232941154784e+00,-6.005553399705168438e+00,-9.055664185382708453e+00,-8.208104815830882472e+00,-7.526939977367290702e+00,-4.263682449118849860e+00,-5.438247128921954499e+00,-4.168542584876014701e+00,-4.291428050138558881e+00,1.535984933628374849e+00,5.063550575000339116e+00,1.068687990736984794e+01,1.049092497347919384e+01,1.239748102542489150e+01,7.502406239216542261e+00,5.735392490179371805e+00,-7.373228000742849675e-01,-1.417865133004915013e+00,-8.567249716146601912e+00,-9.903375409562798382e+00,-1.331727267329893039e+01,-6.460026671271934973e+00,-6.234495729271497311e+00,-8.480663711238710656e-01,-3.868004002941708652e+00,6.440469796709709094e-01,-4.153158489904607897e+00,-1.426858553920938022e-01,-7.942929128518537496e+00,-8.442827250778682568e+00,-4.243001800501785681e+01,8.888167145606190900e+01,4.522680840890931222e+02,9.209487072509735981e+02,7.960544817570416853e+02,4.458269800025639142e+02,-1.018177399400015872e+02,-2.008634982460666549e+02,7.505274169258587591e+00,-2.000557119006110796e+01,1.151486851824005120e+00,-8.740346388785587450e+00,2.730717874572635928e+00,-7.668210455990163155e+00,-4.105141454014764157e+00,-1.453983977319840371e+01,-8.863413384400654849e+00,-1.105638749475460259e+01,1.163158700246201605e+00,6.606494641029287962e+00,1.908185080299062264e+01,1.981030766283626576e+01,2.238697062471483079e+01,1.697132520788996501e+01,2.102713415017880294e+01,2.993510435235434386e+01,5.362877109225686922e+01,7.745156113153342403e+01,1.007850041106406564e+02,1.196382560258469567e+02,1.407220903551204856e+02,1.537580655536125676e+02,1.667584434675997613e+02,1.682741378862175736e+02,1.667998781915708832e+02,1.508134748575302524e+02,1.235206105104440297e+02,9.253159889811377070e+01,6.189579443025952799e+01,3.208664182056798353e+01,1.038268345539350079e+01,-1.407612780334597247e+00,-6.779651153922188200e+00,-9.891664317975420673e+00,-1.220497338256063635e+01,-1.362313173762542640e+01,-1.451626920288827094e+01,-1.212752301652744968e+01,-7.548125221676731833e+00,-6.834797213269930838e-01,3.500563578860679037e+00,6.490219164875440150e+00,5.589552945175872090e+00,5.236573296515411258e+00,3.408542132995836749e+00,3.630143447599304185e+00,6.493233487019898220e-01,1.697036632293893454e-01,-5.905763822274748831e-01,3.707629594515741367e+00,4.517493081399915233e+00,6.874139384637337535e+00,3.156982316700468250e+00,2.260952283694888543e+00,-3.294965872353418757e+00,-1.342099528385564788e+00,-3.083136722531129248e+00,1.384045416619924529e+00,-2.240674414138231096e+00,-2.900396891705241120e-02,-5.946095999239293661e+00,-3.016014572516134695e+00,-8.963122962041524033e+00,-3.853006552176870159e+00,-9.864449115479184016e+00,-3.389962292398631671e+00,-1.093997536841892071e+01,8.240458764912139689e-01,-8.650500929011249340e+00,4.332955625145725520e+00,-3.144229823811591018e+01,3.307912275202769337e+01,2.753092794194462840e+02,7.679738735292930869e+02,8.460219382788204712e+02,5.049582681957710975e+02,7.670911791368835964e+01,-2.828114957985271758e+02,-5.109557014046839640e+01,-2.461709534813900646e+01,-3.175166452514827853e+01,-2.251988983477223982e+01,-1.789890898362035188e+01,-1.519289341941601634e+01,-9.149017076053098663e+00,-6.573808015044313002e+00,2.009150933013099660e+00,4.273324912735001924e+00,1.036545917285395113e+01,1.006062102754364673e+01,1.227841247080234943e+01,9.014723415497611470e+00,1.073454577934635878e+01,1.043637393016169312e+01,1.594052972196097784e+01,2.226984667129480755e+01,3.730498951922600526e+01,5.492728987673844188e+01,7.705386051954519644e+01,9.621119669422427023e+01,1.183564405997884563e+02,1.384929406636044575e+02,1.566574091881610684e+02,1.656515547680619420e+02,1.650778063128360600e+02,1.461888152894984216e+02,1.171437178160809793e+02,8.494110222339895699e+01,5.403337760220176733e+01,2.704244208710015585e+01,8.241918605834666067e+00,-5.593423482513754097e-01,-4.991293687301816107e+00,-6.122347393472108656e+00,-6.074386413145694164e+00,-3.591120519695594204e+00,-1.077383422006852998e+00,2.379433666842559081e+00,2.532058546814313971e+00,1.788565350185232994e+00,-1.440180820425048580e+00,-8.083031367304536197e-01,-6.678148850664031855e-01,1.742551446189867681e+00,7.708711762893655228e-02,6.104035589219304336e-01,-3.279077515766886108e+00,-5.367732301397878381e+00,-1.287807007707561269e+01,-1.549795549315189547e+01,-1.998510571206895747e+01,-1.641449021271269970e+01,-1.555467686381204828e+01,-7.930865130160789533e+00,-7.792938097470730519e+00,-1.568768769895525494e+00,-3.833988561731041855e+00,4.653494511861832272e+00,2.786299937164941731e+00,1.035559485598223795e+01,2.356676357113136167e+00,1.009324657007851300e+01,6.371641161653744945e-01,1.189887375775566980e+01,-7.263720345543706713e+00,4.732905449367190265e+00,-4.428912676815463101e+01,5.435434340247013552e+00,2.275642643474595559e+02,7.134614066488363733e+02,8.330991522205819138e+02,5.110620686908926018e+02,1.196488320362119566e+02,-2.668744459021245348e+02,-3.809411001579383083e+01,-9.069293128957404804e+00,-6.067240857389732511e+00,-1.226589171567697178e+01,-9.904968591073383122e-01,-1.004601663287000690e+01,-2.482903511286864706e+00,-1.463412983014364777e+01,-1.074256704931332784e+01,-2.019647983759236354e+01,-1.106195200595776384e+01,-1.095802706708254703e+01,3.946724407043717076e+00,6.659762795562177651e+00,2.034808090522260215e+01,2.454608330159405227e+01,4.125562345665252195e+01,5.076880013153507321e+01,7.105232489855927724e+01,7.727642740244546360e+01,8.932774402614887777e+01,9.010542473215434711e+01,1.053715722636729879e+02,1.173136509236438769e+02,1.416416493107185488e+02,1.530742846524011611e+02,1.594858750879157583e+02,1.363517936683498419e+02,1.116779297723895183e+02,7.552233706446332917e+01,5.062440600476551822e+01,2.330948013831524079e+01,1.710689504608494360e+01,8.022543155913282931e+00,7.060983553269614355e+00,-2.029074351347246896e+00,-2.872946787568542604e+00,-1.025544205436219869e+01,-6.850359111966277226e+00,-7.757100905053643913e+00,4.484931226145986161e-01,3.844453259555332125e-01,6.406817251732727314e+00,5.114256477374865995e+00,1.289845911638469289e+01,1.578870173803669630e+01,2.287681664974219586e+01,1.654915400208156484e+01,1.325044018458121542e+01,2.727760205319791909e-01,-3.641920437904454744e+00,-1.204376322243029485e+01,-1.221419983936441156e+01,-1.804055006885582557e+01,-1.581441388715379937e+01,-1.870473711029855224e+01,-1.243273743912440210e+01,-1.253250036028948244e+01,-6.308357318116541990e+00,-8.799996429671315568e+00,-3.442479722161378763e+00,-2.991559081253130969e+00,6.180110095066100762e+00,5.247824444733814708e+00,7.206953976585879218e+00,-1.730590073164708365e+00,-2.818795893924752161e+00,-9.292877544863463513e+00,-5.901160132540224090e+00,-9.001761238497342887e+00,-3.169065041173101172e+00,-3.318653659340093043e+00,5.000342746176431596e+00,5.414355965123466952e+00,1.473150568493519863e+01,1.343992089318358296e+01,1.838255028289252380e+01,1.107165702926142892e+01,1.312817354079829890e+01,5.970964620052477301e+00,8.221227838260402265e+00,-3.027570629501778576e+00,-1.755823501055944647e+00,-9.834934599527375809e+00,-3.513407910341323159e+00,-1.262380998630173679e+01,-8.173008759131043632e+00,-1.714686977001212043e+01,-2.330463499726389998e+00,-5.800874711778480908e+00,1.402927357623335070e+01,-4.423832124387519826e+00,4.800879409462618952e+01,2.956261992482406527e+02,7.710854911842890260e+02,9.337464819592535150e+02,6.255056857532663344e+02,1.273529841770551343e+02,-2.624753457951837845e+02,-5.985219323629473820e+01,-1.865792738536779538e+01,-3.240928471622691376e+01,-2.516365466356036862e+01,-2.414825941142851562e+01,-1.503073494455322034e+01,-8.734743949462034251e+00,-8.482517755621187261e-01,6.209168650094109232e+00,1.317041817013192784e+01,1.387107383758309176e+01,1.043024895218237980e+01,1.686410711218713665e+00,-3.822671602021833426e+00,-6.583168056758008646e+00,-4.270522215641156194e+00,-3.574458330612094503e+00,1.643764948180644003e+00,5.972908492893783894e+00,1.812904372642500306e+01,3.604924702583635820e+01,6.833242183909318612e+01,1.022286973746195713e+02,1.291242500842865581e+02,1.463172466998411494e+02,1.524837811839162214e+02,1.487442537740235196e+02,1.367671852473998513e+02,1.134694633201458629e+02,8.880400134881602980e+01,6.006473946590509883e+01,3.640016764340201405e+01,1.654138744354692037e+01,1.028280770215607731e+01,2.793078517765037461e+00,-6.404082090123364157e-01,-6.364707466946025960e+00,-4.657376933272188602e+00,-7.335976140871068196e+00,-5.087534575007967241e+00,-5.701124073248369228e+00,2.496904296214470076e+00,6.313637807500168009e+00,1.283996939691039074e+01,1.211077730806175090e+01,1.643917603830551855e+01,1.427662752747146513e+01,1.666797280588793839e+01,1.077231285362235980e+01,1.119767460776698442e+01,5.233900963959133179e+00,5.626546787290115148e+00,-2.453906640959336194e+00,-2.249881264936851366e+00,-8.546292176741195235e+00,-4.744304502851718119e+00,-9.925876321254406776e+00,-5.954637684098552874e+00,-1.205006716369259401e+01,-6.172815268854794368e+00,-1.016518865668499849e+01,-1.884555886632288679e+00,-9.326981936701605136e+00,-5.113927961530975175e+00,-1.651335912468060485e+01,-1.006481773430062887e+01,-2.327980713783789923e+01,-1.380972572517947405e+01,-3.070653475514031427e+01,-1.502451670568430053e+01,-6.490934176639834163e+01,2.721774697122802422e+01,2.693250599213288297e+02,7.827437462623120155e+02,8.698518829797181979e+02,5.171164733746102229e+02,9.194001593699908881e+01,-2.466756880369346732e+02,-2.726085079243659948e+01,-2.606108092904196649e+00,-6.746407234468890124e+00,-1.534513833818141215e+01,-1.239351003118482808e+01,-2.103161669995429506e+01,-1.214943666685346280e+01,-1.364755068439360741e+01,-8.679729151689165034e-01,1.628919452051667882e+00,1.531941895232560569e+01,1.713202676908360544e+01,2.739984456875335184e+01,2.646195930637009752e+01,3.162785557632832933e+01,3.090685119749706189e+01,4.089493780828462377e+01,4.875361381094793956e+01,6.494222453702940356e+01,7.461279103986666428e+01,9.206147105550039100e+01,1.042311105158868827e+02,1.252622127727900789e+02,1.385486426810306000e+02,1.518265900611711743e+02,1.590433020290705031e+02,1.656139148047194567e+02,1.515982359779933120e+02,1.285718964825317698e+02,9.753196677052845587e+01,7.019679020847827644e+01,4.151135429744169869e+01,2.103367821015260120e+01,6.219214665925343333e+00,5.637722475978892422e-01,-6.988527259672242309e+00,-9.321249248825193234e+00,-1.301192234506887679e+01,-1.143126119644871252e+01,-1.114441599839692998e+01,-6.339053944435716126e+00,-3.336650630338769741e+00,2.030057078375504531e+00,2.125001391134504480e+00,3.420529828443960696e+00,2.642537926123686987e+00,5.879159719941270623e+00,6.565681486487034313e+00,8.876255105633031661e+00,7.641339014822922771e+00,7.151371816202882314e+00,1.929863306452360483e+00,-2.007286437432058701e+00,-7.079080995083780081e+00,-9.122814220633056692e+00,-1.241137032441145749e+01,-1.109662471151494323e+01,-8.944550499601463756e+00,-2.979041206331183744e+00,1.966898912741322780e-01,3.100174991838632987e+00,7.243248812102407452e-01,-4.571995291669358474e-01,-2.504188521455601002e+00,3.440336439640087063e-01,1.634067651895171780e+00,3.176047988177044701e+00,-5.786669857194967070e-01,-3.252587048243041679e+00,-7.790633242756964449e+00,-9.218619551189689787e+00,-1.074387278307397864e+01,-7.397541153911332934e+00,-5.297504367691548310e+00,-2.806314247853428423e+00,-2.999841167574432532e+00,-5.817841868125833704e-01,1.631879305705559169e-01,1.815525485327698751e+00,2.124476248566618874e+00,5.847531925512585715e+00,7.990714735954049353e+00,9.883803232887117929e+00,7.107985112693192775e+00,4.665574440124131250e+00,-2.330966078286292233e-03,-1.106006335255860895e+00,-2.568872122852016382e+00,-4.244368837303991171e-01,-3.435750907239839003e-01,2.351716682330274644e+00,2.055770271857458198e+00,3.606828180578261378e+00,4.660230524320825296e-01,-2.388900279353081690e-01,-2.591067780889745542e+00,7.792585180686044666e-01,7.615300432524193530e-01,1.826580479870169915e+00,-2.857189284600341050e+00,-3.816635781279257955e+00,-8.817364310142492556e+00,-9.119762090805281218e+00,-1.102528005786491683e+01,-3.568900679460650593e+00,-9.962708125457896413e-01,7.283222043801820256e+00,4.258159554870654340e+00,9.508463590734198334e+00,-4.006726531213702813e+00,2.100501827270855049e-01,1.599676994411462090e+02,5.918095053156951053e+02,9.176958600495893279e+02,6.816283488870981273e+02,2.868476343325746143e+02,-2.162486333940578334e+02,-1.188484927888903826e+02,1.302898557720500960e+01,-1.507360543444766598e+01,-2.196390059200441502e+00,-9.851114201876288945e+00,-5.677059547851718513e+00,-9.003425911667802595e+00,-6.488704963399176684e+00,-9.377512267017037217e+00,-8.147899108789998124e+00,-1.098984594602934983e+01,-1.034666853457472513e+01,-1.097463292744275698e+01,-6.492987419704139285e+00,-2.707813501211258078e+00,5.130194739094147138e+00,1.348586267761944946e+01,2.730473175992139545e+01,3.976320267308844336e+01,5.648537862461375170e+01,7.104607580561773261e+01,8.727858506333805622e+01,1.046705090767159163e+02,1.259524028434273788e+02,1.462428705114091372e+02,1.626902832304796789e+02,1.649434279135157055e+02,1.613495093240734093e+02,1.500553647515998819e+02,1.268704880399532726e+02,9.625894380411448026e+01,6.579898375334526861e+01,3.760207157661214694e+01,1.840867957930051801e+01,7.107692632133119304e+00,-5.345522207112517882e-02,-3.450626644526835207e+00,-2.119713541501312193e+00,-1.179586421276183739e+00,-2.051883810899894023e+00,-4.456442178990694281e+00,-5.018896584343466749e+00,-3.812523531013790379e+00,-3.473671413516750128e-01,4.112695236338745453e+00,8.782994115064971297e+00,1.193110554544144186e+01,1.438631635341480219e+01,1.309913099887998911e+01,8.303916172859599598e+00,1.849415635932222524e-01,-4.467305137379717905e+00,-4.741570396860744552e+00,-3.240391650798186252e+00,-2.648342829656269437e+00,-2.189023992778826422e+00,-1.427815253646016913e+00,3.879826306736359198e-01,2.162532439098906245e+00,2.144779949808973019e+00,7.280877477539922094e-01,2.254140971463959586e-01,5.975877641474682811e-01,2.407333543225861350e-01,-2.238665204034766543e+00,-5.356846242117378587e+00,-8.050217226114837032e+00,-9.638726429741744539e+00,-1.056392807124887234e+01,-1.079707531173723112e+01,-9.887938913953320252e+00,-8.339801323007161926e+00,-5.305079090028563371e+00,-1.357307422759785664e+00,3.365634113074838396e+00,7.067525828443869784e+00,9.757099401955896312e+00,1.045277227009250964e+01,8.910291182054439929e+00,4.296773821659479964e+00,-1.417855216551758391e+00,-6.892898943925195532e+00,-9.903761140044290201e+00,-1.053972117108631146e+01,-9.354062486027542533e+00,-9.233426692123236634e+00,-8.235491522306785939e+00,-3.947189727174812202e+00,2.992386773575928416e+00,8.561474143789384428e+00,1.161421954459517458e+01,1.215182308455041316e+01,1.036249064685105026e+01,6.465861907194974556e+00,4.049842443354112476e+00,2.965638263458307833e+00,1.522498733677855043e+00,-2.496484210323195896e+00,-5.965640972523166496e+00,-7.890714065477126837e+00,-7.871846839441397847e+00,-8.236834216603730496e+00,-6.991455166926212605e+00,-4.666856268567975974e+00,-5.023545892002293650e-02,1.502832825754059076e+00,3.161824780758808018e+00,4.102175489204202385e+00,7.379118189916434645e+00,6.513207598106970586e+00,5.487261603406595967e+00,2.122969113301834909e+00,1.946843145546981013e+00,-2.182191383065929635e+00,-2.657691513581387888e+00,-6.567128845324089248e+00,-2.277978659982969223e+00,-5.219965138438520391e+00,1.674191359350604147e+00,-1.200173792769456327e+01,-9.872980093786884126e+00,1.363346866113178919e+02,5.659486867599332527e+02,9.453017660570693579e+02,7.343880163573894606e+02,2.830428504553273683e+02,-2.224244649784848207e+02,-1.259411805336382599e+02,6.862728668640345475e+00,-2.189698789825612479e+01,-1.340196721832997184e+01,-1.862393256436877564e+01,-1.433894714837843054e+01,-1.230830867107201065e+01,-7.566884361569552908e+00,-4.940025293743445900e+00,-1.430187736135853704e+00,1.847094064919799328e+00,4.433157352229910586e+00,6.097525162218499162e+00,6.945310533015976340e+00,9.369240724775618645e+00,1.187209478188001555e+01,1.598613644627512542e+01,2.206878349785433002e+01,3.462601631759433474e+01,5.187958123801711707e+01,7.608703020193591726e+01,9.861854118368364652e+01,1.213961284157999074e+02,1.415053402393615158e+02,1.544066918313728252e+02,1.601120212723119209e+02,1.631710189249009773e+02,1.586446146841820166e+02,1.416226782283697787e+02,1.124173416984869505e+02,8.071680039629298165e+01,4.775854520051603203e+01,1.965061366340282234e+01,1.018384992356626828e+00,-4.173852020990091560e+00,-7.465212681100087622e+00,-8.671455753749617301e+00,-1.053985676725655196e+01,-7.506230852145934662e+00,-3.335706054523028374e+00,1.202291424362792238e+00,1.211815454153152061e+00,1.546107684593729381e+00,8.769025038901601121e-01,2.154667121220054327e+00,1.373138261705683760e+00,2.778089323181903936e+00,4.034054910858138498e+00,7.050389025594423487e+00,7.640105793544406332e+00,8.572802888543799682e+00,7.585266767718806591e+00,6.670349022946507667e+00,1.992791112535662323e+00,-2.513459043324939746e+00,-5.835762404460325570e+00,-5.448051133546195857e+00,-6.011735493803649355e+00,-7.035663611601648881e+00,-9.966369265935934862e+00,-1.081362739769180337e+01,-9.785971271548580930e+00,-5.161764580983653872e+00,-2.242784918296593322e+00,-7.382288747076362068e-01,-2.365839772894070325e+00,-2.201472477314541543e+00,-1.960926540291740183e+00,7.310337019474711928e-01,1.584657259220443759e+00,1.672234615047252904e+00,-1.962568450070161008e+00,-4.196430329938413806e+00,-5.981406014438439556e+00,-5.258172573765309998e+00,-6.517634132291539650e+00,-6.046116768096882588e+00,-5.775407273056561763e+00,-3.518420966194157451e+00,-2.840339867604046109e+00,-2.291141119686419259e-01,2.443194761496719991e+00,7.424814919879882957e+00,9.918987074715046148e+00,1.254157454189863685e+01,1.194516434752447509e+01,1.134544153075228223e+01,7.965730163627184446e+00,5.923381233363475218e+00,3.301272908031895881e+00,3.378268284073766559e+00,1.225749131069883369e+00,2.563755938775298948e-01,-1.902325159556146561e+00,-1.132544966972258482e+00,-2.394637060735328227e+00,-3.203560811947243181e+00,-7.383242243562754936e+00,-8.220194225354026329e+00,-9.385951188501250542e+00,-4.406683839908196454e+00,-4.176921342886897648e+00,-5.453948792590527228e-01,-1.314291613811104575e+01,-2.205262737889367486e+01,1.241841159531074794e+02,5.340623749385298424e+02,8.978801752378267338e+02,6.827461429335155572e+02,2.949145941440603451e+02,-2.186694621234976808e+02,-1.685304909564263198e+02,-3.061109595555943752e+00,-4.694397182658737222e+01,-1.604705494796696286e+01,-2.150428274262209527e+01,-7.217692977996552628e+00,-1.015888621126281066e+01,1.467165327658669582e+00,3.515504975724627723e+00,1.338475242227715256e+01,1.107384489331634292e+01,1.400626094780719200e+01,8.425575796718062449e+00,8.117566030077247419e+00,1.325841462972480844e+00,2.238367642836982974e+00,8.644216929249233239e-01,8.397490789073334128e+00,1.816421683007453325e+01,4.270157589890882122e+01,6.707109341753918841e+01,9.444046201811197250e+01,1.133840475973747601e+02,1.359066902343521122e+02,1.487558169869119524e+02,1.620257673927462747e+02,1.650845425947755984e+02,1.652145196630596331e+02,1.470867799236689848e+02,1.194627188704295406e+02,8.526200679948385641e+01,5.605544545941449996e+01,2.709338211030362942e+01,1.091399724847352815e+01,-7.960745908532227411e-01,-5.213134505859013501e+00,-8.207633976559041145e+00,-6.438139724855438395e+00,-7.792847014642749315e+00,-6.157168725112896368e+00,-6.461625687855693023e+00,-3.499019005591352371e+00,-3.370296614122658241e+00,-4.285095856706524486e-01,-7.970722577183042556e-02,3.302850975546432810e+00,4.912602169695657217e+00,1.069863941276671326e+01,1.228452605633090577e+01,1.398331506573205196e+01,1.037239060425160631e+01,8.308265051590167261e+00,2.733815832134386614e+00,-1.642114303801667230e-01,-4.853115409054637119e+00,-5.325760227110578171e+00,-8.008039502591621783e+00,-7.074113574021834161e+00,-8.262597166587992703e+00,-6.765861249476010642e+00,-7.899552351841539810e+00,-4.578081282593527312e+00,-2.760317700514616668e+00,1.227389703275263422e+00,-6.532264695119578413e-01,-1.587084759869705985e+00,-4.337183722184680512e+00,-2.755048178446688922e+00,-5.816152855566642188e+00,-9.420845267837812287e+00,-1.563108074486722643e+01,-1.718090841205943775e+01,-1.860105941008339769e+01,-1.514586821880812550e+01,-1.132283780412129204e+01,-2.567147592651934485e+00,3.200318514803496051e+00,8.698129026358961013e+00,8.139836045391049879e+00,6.693272737771433611e+00,1.478063784280692294e+00,-3.222985077211300009e+00,-7.788375809389370907e+00,-1.430645616395741548e+01,-1.682415166919449945e+01,-3.419267403602837874e+01,-4.061162367031532483e+01,1.159870866085570356e+02,5.200669414730353992e+02,9.054315981365379002e+02,7.018890865071693952e+02,3.454838780133459295e+02,-1.653806928623597514e+02,-1.312174711266052327e+02,2.783852835834438366e+01,-1.692731701682504664e+01,-3.446201111820759166e+00,-1.666220816971262764e+01,-1.264454696683094248e+01,-2.183411382702368542e+01,-2.112740518750307572e+01,-2.591636676334353240e+01,-2.073953938933477659e+01,-1.505507729778710591e+01,-3.779764390259414242e+00,9.084655480477678680e+00,2.064498375820875253e+01,2.609530892835655536e+01,2.657827356908819283e+01,2.370747840782811977e+01,2.845175050954319573e+01,2.783848468749502203e+01
-1.496897606517159218e+01,-2.024062344271611380e+01,-1.337970691752559027e+01,-1.081104880830315906e+01,-1.203802648551631194e+01,-1.089643911766076911e+01,-7.688738337823068036e+00,-5.876946490313450511e-01,9.779777568705341650e+00,2.627151288054480460e+01,4.503885113982373412e+01,6.256257048398211396e+01,7.211365503433010815e+01,7.602089568148186061e+01,7.818403468520880040e+01,8.123210240225361645e+01,8.402598647069851268e+01,8.618354810777216812e+01,8.298419804194980998e+01,7.070948625714704860e+01,4.959128352228337633e+01,2.711840192413875172e+01,7.582846459247943649e+00,-2.335304478302854037e+00,-7.517064252027108040e+00,-8.403345004539366059e+00,-1.035185249955600106e+01,-1.092928486888034278e+01,-1.285821182756038894e+01,-1.298811589691855772e+01,-1.445771202958244217e+01,-1.243420998149940182e+01,-8.009951265056196590e+00,1.992317811256143933e+00,1.026292841238626430e+01,1.446804041829434340e+01,1.109597049636004584e+01,7.003895709771573053e+00,1.447981643356553327e+00,-1.950816041826963332e+00,-5.683336223070758031e+00,-5.950728704079921272e+00,-7.606606921891873263e+00,-8.494946523864856047e+00,-9.563464531695203164e+00,-6.974243197670815242e+00,-4.995216487288475449e+00,-1.762501407314877699e+00,2.731051422812743601e-01,4.997435087498981687e+00,7.442149683392805137e+00,9.305249688687851517e+00,6.691923113879550300e+00,5.784414898366883051e+00,3.833801697947102127e+00,5.234141305676091704e+00,2.995036536877087485e+00,1.236105618447843613e+00,-4.644171013204735132e+00,-7.800004592148699345e+00,-1.216779184398827240e+01,-1.215103578950673757e+01,-1.387705825767800505e+01,-1.167294350399523317e+01,-1.157007311780095016e+01,-8.513033257353596284e+00,-8.600808263152911692e+00,-4.196423843885309424e+00,-4.845320375165851345e-01,7.193427424238125312e+00,8.648725912037994235e+00,1.034250185735605321e+01,7.653399660454699216e+00,1.187010507459412878e+01,1.410660184236402870e+01,1.893702092046767049e+01,1.622310251109652413e+01,1.460276670890411133e+01,7.214777048330451414e+00,4.280240176873071789e+00,-4.175119437564467795e+00,-6.582407747811813259e+00,-1.308147440226629499e+01,-1.250078784501301854e+01,-1.709873409982551706e+01,-1.301164966344679819e+01,-1.320283288152950263e+01,-4.463740078914166354e+00,-4.834777654719038864e+00,1.114907444853971974e+00,-3.300471953464628072e+00,1.019506234926434995e+00,-6.556467160582653442e+00,-2.560247074665142009e+00,-8.914485057414410107e+00,2.768582620357188162e+00,-3.601454231635602188e+00,8.268776489382540618e+00,-1.539849415350837525e+01,3.929934587820631009e+01,1.352488236166342119e+02,2.549636432466881786e+02,3.979720916379487790e+02,3.719555126646198460e+02,-1.157410530320181863e+02,-2.968388789105304113e+02,-2.050347778306323221e+01,-1.502733553608824479e+01,-6.126360434451199488e+00,-8.681085891044128644e+00,-4.642319654672960039e-01,-3.907427881857037377e+00,8.628621589684014603e-01,-4.929559000696030147e+00,-2.035039802460061331e+00,-4.505410417097740705e+00,5.558033202673832163e-01,-3.008586400215601531e-01,3.620295669866056443e+00,1.988613394183371685e+00,3.835101705533588312e+00,-1.110149742517096451e-02,-1.637904232256602033e-01,-3.235630807831184175e+00,-6.632243605529470898e-01,1.505657398183591233e+00,9.657944052562339010e+00,1.684226438213029908e+01,3.050930201814978204e+01,4.884343616954590317e+01,6.968361047562098065e+01,8.498696500830430978e+01,9.136012531497178202e+01,8.572088768800207959e+01,7.366930387922816692e+01,5.307497182316733841e+01,3.332767290908371649e+01,1.457099621393392752e+01,2.932876658388181013e-01,-9.966334173484133530e+00,-1.592976442863733411e+01,-1.791968692728833190e+01,-1.640542062675751822e+01,-1.386280863127061025e+01,-1.076293307008463884e+01,-6.570712820329133841e+00,-1.303371344341765603e+00,3.517297411296615550e+00,4.764990125504807494e+00,3.047156130090322712e+00,1.640987560822098956e+00,4.064547875995538462e+00,8.454590884348752056e+00,1.136329094243042626e+01,9.755544633090593720e+00,5.820587083762022829e+00,6.550777001023408985e-01,-1.735572983660202739e+00,-2.854637447661074301e+00,-4.714743347232730919e+00,-9.180908653071508496e+00,-1.050341070006879818e+01,-9.593442364266570266e+00,-6.802693176968573674e+00,-6.792796380725182992e+00,-4.600835034751336039e+00,-1.941752498860294995e+00,1.103655779716125052e+00,-7.764363848824942238e-01,-1.585386492447680373e+00,-3.105193464057335540e+00,2.287082191625057215e-01,3.030408721576165476e+00,7.911189599549840246e+00,8.659245842521078984e+00,9.651334267558684843e+00,4.513254298742208626e+00,1.001288873664057055e+00,-5.535932132967957386e+00,-7.173493935911311681e+00,-1.275379594571475295e+01,-1.383579568023887241e+01,-1.567539975646642780e+01,-9.140342004666313969e+00,-7.032934634582649558e+00,-2.391810612659492463e+00,-5.005378310025102806e+00,-2.507331287106942419e+00,-7.021340486293398797e+00,-2.751142980717299125e+00,-7.451873795168065584e+00,-2.925891408028925555e-01,-1.381530799818894018e+01,6.978258989245443900e+01,1.919043809035748893e+02,3.754646760790417375e+02,5.173694632688631145e+02,3.454270761127688729e+02,-2.187528433685588141e+02,-2.582965540652717777e+02,-5.905491738555930681e+00,-1.070549891770718531e+01,6.723303967172379103e+00,3.124499640268867395e+00,1.005619555233608153e+01,1.150061840696691151e+00,-4.120952491979697208e-02,-1.033571088411903105e+01,-8.226107622096634486e+00,-1.092118467564934825e+01,-3.881411318234383234e+00,-1.312880806540769107e+00,7.140728511771079923e+00,6.681643567978551523e+00,6.552117498632731518e+00,-1.598141635206033473e-01,5.885149612071901570e-01,4.784187916152846221e+00,2.271041963647176232e+01,4.228571400583244611e+01,6.245261757649260659e+01,7.429518372548805871e+01,8.359506795503654075e+01,8.842394923909782278e+01,9.384394131149380769e+01,9.330003832453307666e+01,9.090555446320610145e+01,7.845501475260347490e+01,6.175313501416791695e+01,4.063846917280126547e+01,2.307210549419697188e+01,7.483996882735056033e+00,-3.484988615964298653e+00,-9.842179851717917316e+00,-1.216212935834551701e+01,-1.448474496396180022e+01,-1.613341507140296116e+01,-1.786667661928538209e+01,-1.789728854269795022e+01,-1.633881721696440792e+01,-1.257912980149264826e+01,-8.143248884554235900e+00,-4.702490964340454660e+00,-2.009089879219883468e+00,1.043887893553641366e-01,2.072443998076222371e+00,4.497228153059136702e+00,8.790654438081167754e+00,1.141829820196196721e+01,1.253765826166672248e+01,1.051548061739772955e+01,9.895771307304373821e+00,7.911190231950202545e+00,6.177856941848467009e+00,1.387989954403840320e+00,-3.022641084775314901e+00,-1.015402020204574640e+01,-1.299939073461144190e+01,-1.583827014968168001e+01,-1.353202703140364704e+01,-1.299326077999666751e+01,-7.245462329171381555e+00,-4.335684251206664896e+00,1.087745921238572278e+00,-6.183348899129756937e-01,2.793187011914530338e+00,9.729628585684789721e-01,4.016666462910335689e+00,-2.553651417074817243e+00,1.383870899325640558e+00,-5.016418257915554513e+00,4.272923095910384106e+00,-1.273516766298236114e+01,3.212362290030780798e+01,1.271748970103391940e+02,2.409279385835870073e+02,3.898912608040440659e+02,3.566119612599819106e+02,-7.071003799163932513e+01,-3.501611149328269335e+02,-6.637535137510211314e+01,-6.188083740253317977e+00,-1.896448657375000479e+01,-1.088469325435073110e+01,-7.447934064685087563e+00,-6.526062724155048400e+00,-3.928969049304397831e+00,-2.175161957904323984e+00,2.783063971621089649e+00,3.131298373605372998e+00,5.197414208478053688e+00,3.985687447946494544e+00,3.378814668025103884e+00,-1.597043621548874803e+00,-3.563322546044910499e+00,-5.722485885960479024e+00,-3.902091891892703224e+00,-1.560406565229039089e+00,6.211108343116803709e+00,1.642309741474966955e+01,3.166997527742344687e+01,5.014847064327313575e+01,6.949640932244304281e+01,8.405239657038006840e+01,9.310483136933602566e+01,9.662669614608881830e+01,9.593286799216410543e+01,8.366707374560596122e+01,6.155112696878146750e+01,3.701807707419703064e+01,1.399311293592091232e+01,-1.238907364630128960e+00,-1.121713828048847006e+01,-1.564427673113974926e+01,-1.594178830986119522e+01,-1.290664963461366987e+01,-6.932924345359083418e+00,2.185244492478104039e+00,1.242017349872976872e+01,1.997852759014779167e+01,2.080449722652870648e+01,1.689886619847125004e+01,1.003898376157182248e+01,6.061521517909727486e+00,3.973140055366883416e+00,2.260964362905954594e+00,-2.696630697412569333e+00,-7.536361749477674010e+00,-1.239493672750403164e+01,-1.534345474293916567e+01,-1.980400798043123345e+01,-2.091829552311782692e+01,-2.103266239769592971e+01,-1.567559621887553511e+01,-9.577244245725813343e+00,1.221635165484508789e+00,8.132792473039277326e+00,1.295620073972717456e+01,8.875208417866273791e+00,6.588102361422921049e+00,4.923911389196400923e-01,-7.105338534560214914e-01,-7.021634200758858135e+00,-4.741682119129872142e+00,-8.214235823875403852e+00,-1.962102516564492749e+00,-9.862614932953523095e+00,-1.692701663049617666e+00,-1.937144141656158780e+01,2.095406126172233030e+01,1.133021980271265079e+02,2.150376877160377376e+02,3.757067605674014885e+02,4.029558721904490994e+02,1.479572353972733179e-01,-3.301766337855870006e+02,-6.563768517481571507e+01,-3.887659983743061431e+00,-1.464583101441219348e+01,-1.366266243101856048e+01,-1.059647976373133105e+01,-1.210203369156286080e+01,-9.989304787142396336e+00,-1.686452734803242137e+01,-1.685711471899201186e+01,-1.939997552820053883e+01,-1.070213611845846202e+01,-3.729173633707036917e+00,9.273770340324839268e+00,1.490538686311770711e+01,2.024796533813554333e+01,1.615562110794886053e+01,1.625726360820721439e+01,1.403039860206585843e+01,1.977598578616911595e+01,2.011407510445963354e+01,2.303931573102085650e+01,2.124188452873507060e+01,2.914417926842975248e+01,4.477218293935430182e+01,6.883387622247771276e+01,8.591677616647041305e+01,9.396535145888022100e+01,8.301569999987231085e+01,6.292773371957758144e+01,3.606883513660906004e+01,1.293268795210234146e+01,-3.277135273614162347e+00,-8.479575329212819312e+00,-1.447841033384251652e+01,-1.554073502686217267e+01,-1.924289474506510444e+01,-1.886898188768511275e+01,-1.976283120460853127e+01,-1.458019520552696591e+01,-8.543970084096114803e+00,2.526873488784644461e+00,8.796650343315002729e+00,1.533394212686755509e+01,1.708163476674933534e+01,2.209234726438129570e+01,2.558521517540652823e+01,2.815842471355951204e+01,2.090271751520663202e+01,9.657520489937626351e+00,-5.802029946835208563e+00,-1.364300778249816659e+01,-2.059608638379760848e+01,-2.280324459779818369e+01,-2.733050043961215181e+01,-2.702208838284109049e+01,-2.704539550680506821e+01,-2.070931444470210891e+01,-1.538384835287315866e+01,-7.720399917473855567e+00,-5.065607831248208015e+00,6.307550500535988869e-01,5.705829695381011035e+00,1.485925979711289635e+01,1.606018184081727185e+01,1.370200042355871517e+01,4.100610716307961034e+00,-1.861953611496601768e+00,-8.214505431246911016e+00,-9.259149768376655487e+00,-1.317116754759884145e+01,-1.293107424229825142e+01,-1.249973577298948157e+01,-4.494920952850825380e+00,2.767445024317280566e+00,1.493624829845077606e+01,2.061191515497512938e+01,2.648311430085531981e+01,2.578154377661526908e+01,2.824682952441867201e+01,2.431850324798152485e+01,1.973499304799900145e+01,3.886187483138466181e+00,-5.153009984486478956e+00,-1.369824736569766621e+01,-1.279774898864551602e+01,-1.948367481952880098e+01,-2.105101414178723473e+01,-2.695455534408241860e+01,-1.629580144260838281e+01,-9.524273071632965326e+00,1.003027359991432377e+01,-2.999506798983551659e-01,6.538974055110114136e+01,2.001511160563280782e+02,3.209888951278659874e+02,4.923875730433288709e+02,5.016288709834140036e+02,1.370690423944016345e+01,-3.404325454268160343e+02,-8.844439811418088482e+01,-1.721401901218463948e+01,-3.185760614826016024e+01,-2.626151679170030206e+01,-2.416101241007417144e+01,-1.543490911575808688e+01,-4.934560677313426069e+00,8.909228572226458809e+00,2.387071896796891934e+01,3.154916127581045870e+01,3.071289191700283538e+01,2.375095004124734999e+01,1.029110439374700725e+01,2.785305130551865016e+00,-1.944669355073427086e+00,-3.990941747593879541e+00,-7.443252222338912816e+00,-7.130212402864275489e+00,-5.488298000614857841e+00,-7.396759662643308426e-03,7.413076750405348747e+00,2.814528569869810326e+01,5.650975839743238538e+01,8.137666248032179794e+01,9.060734302541652596e+01,9.247432510976405240e+01,8.941568040609406864e+01,8.364453643993488186e+01,6.764979233167976247e+01,4.851383719852000809e+01,2.499096015785424640e+01,8.476599932518807279e+00,-6.901488758399734191e-01,-3.644886679781368155e+00,-6.606421936313049414e+00,-7.490606156903467649e+00,-8.963317936555084131e+00,-7.551370601247192837e+00,-9.224461703689495806e+00,-8.755164523714583424e+00,-7.690143585611676436e+00,-9.600256108158821133e-01,3.399258635673979345e+00,7.605102986326923720e+00,7.766447306634207237e+00,1.139762462888717920e+01,1.277816156465576825e+01,1.574949607427999254e+01,1.228182059048569386e+01,9.396737755758476140e+00,2.814867932505544790e+00,-1.212043494551500872e-01,-6.055069127929140649e+00,-7.245978503373081026e+00,-1.048778161405648568e+01,-7.151743854107732723e+00,-7.744374387032279650e+00,-5.411182277503422178e+00,-9.020712815678995966e+00,-5.001408478162383986e+00,-2.606474195768039959e+00,5.991392361055740245e+00,4.664152215884013408e+00,7.243366261526317906e+00,1.120344952982016640e+00,2.562281300415367724e+00,-9.344274838057184951e+00,-1.054343332028652469e+01,-2.374070918387486273e+01,-1.407910553272061271e+01,-3.541930090775791484e+01,3.678498333040513302e+01,1.344179754993473068e+02,2.887110102802860183e+02,4.703420235816396939e+02,3.895164206559051649e+02,-3.169454900357215621e+01,-3.174990123842219418e+02,-5.677065305396079253e+01,2.682310357980360660e+00,-1.387001082358103510e+01,-1.463837636383742158e+01,-2.186181960642805677e+01,-2.860394886708152740e+01,-2.838756405905132496e+01,-2.583860640145845267e+01,-1.642432654645118006e+01,-9.996161684191784857e+00,-9.448501303667509177e-01,2.524294356072698253e+00,6.746231830930037532e+00,6.151234187256790165e+00,7.929088377549717848e+00,7.320546467216821007e+00,1.046223409095985346e+01,1.221045747748487109e+01,1.619571390821229429e+01,1.772322029081103523e+01,2.238026695771259256e+01,2.594908082079978229e+01,3.141686069672200787e+01,3.814933772639317766e+01,5.187384509604454763e+01,6.191349635906841797e+01,7.024833356632738912e+01,6.501038404731330900e+01,5.003959532469529847e+01,3.019249540545589738e+01,1.432632886976148612e+01,1.102075077501927458e+00,-8.134377111952654005e+00,-1.522946375027399135e+01,-1.890407587462825845e+01,-2.214598108658789855e+01,-2.239047998381913374e+01,-2.266022878094986481e+01,-1.980249827413487651e+01,-1.581102424498763881e+01,-8.209184619232779312e+00,-1.249072802885575317e+00,4.552305910354457197e+00,5.920397600424103679e+00,5.688126648769388005e+00,3.998889318395784542e+00,4.249292682085634709e+00,5.101638352641586494e+00,7.614876738993536343e+00,9.160727262608814314e+00,8.766728850635590931e+00,4.049803729810681929e+00,-1.917620553017451490e+00,-7.941238979604253956e+00,-1.183387053517619769e+01,-1.455645685728195815e+01,-1.444095098426023860e+01,-1.167008460243047629e+01,-5.530089164762464371e+00,4.570295492542713056e-01,4.252861613105209493e+00,2.981497603453490797e+00,-1.791169714588977668e-01,-2.618035519043402815e+00,-1.360622900500559007e+00,5.484450011795968249e-01,6.462943001843348689e-01,-3.604456913994154021e+00,-8.526022187291879106e+00,-1.209749388962742067e+01,-1.139098512716210543e+01,-8.124614077734232609e+00,-2.826162018288669309e+00,-5.957892451278021945e-02,-4.485496080719938994e-01,-3.092644588442171827e+00,-3.387133526791640925e+00,-2.105439999518091021e+00,6.261079303549719199e-01,3.802399893357459870e+00,9.408925999443921384e+00,1.490005835422386582e+01,1.778650956449133957e+01,1.526739315637648531e+01,1.052127358894026798e+01,4.517558813566349585e+00,1.895337098312954272e+00,8.444407164568388247e-01,2.188220533355652364e+00,2.307159853427253271e+00,2.954518817548200893e+00,5.104432336456884434e-01,-2.799204627109774801e+00,-9.701724299509262295e+00,-1.304109929294072856e+01,-1.306181535555661277e+01,-6.075140655777587995e+00,4.160132149285288294e-01,4.308846800599339666e+00,1.293618545048389912e+00,-2.404399861998646415e+00,-8.194426521692617982e+00,-9.731386447890145064e+00,-1.005742911274418283e+01,-5.012386407852162051e+00,-3.578405018856292585e+00,-2.761576023951158310e-01,-2.048681972408105789e+00,4.793664419182211311e+00,-2.614319787618092916e-01,1.175833447617514516e+01,1.116259860984877150e+02,2.174322731218299509e+02,3.561641529704876348e+02,4.514659460392391566e+02,1.762863467503142658e+02,-3.026923349213791994e+02,-1.457162063350208143e+02,1.256028215834498418e+01,-1.406353892866722255e+01,-4.452815096115043225e+00,-1.537396819954931360e+01,-1.635526578910020135e+01,-2.027353680949782344e+01,-1.769158916911491275e+01,-1.692952643486128395e+01,-1.337338794495483718e+01,-1.205136773011768980e+01,-8.587393702592640565e+00,-6.176450625148803830e+00,-1.732981801441790815e+00,2.973614329422795244e+00,9.659560122552303341e+00,1.635358352927318393e+01,2.114319137865800968e+01,2.107181951226127126e+01,2.065268586037895204e+01,2.288292726166130819e+01,2.877168627548008573e+01,4.310128744299194636e+01,6.142268543641822021e+01,7.939317814284265751e+01,9.292101175240523503e+01,9.574696736373968520e+01,9.601327291280551890e+01,9.304588051076750332e+01,8.280617294885723823e+01,6.334516537781551193e+01,4.235674058954989363e+01,2.183629634948992404e+01,7.867273155349121083e+00,-3.791373353937524726e+00,-1.112657166326635760e+01,-1.569765363243037370e+01,-1.690713947927408256e+01,-1.789844539626009379e+01,-1.851156031225341181e+01,-1.875004077276079428e+01,-1.627910448871527294e+01,-1.185673159241452623e+01,-4.685743487835567933e+00,3.206141131342111095e+00,1.242373920633523454e+01,2.047369723824698440e+01,2.488870198920078991e+01,2.294746307975433552e+01,1.574829392263982086e+01,6.094816718671555833e+00,1.188928834011007130e+00,2.054632203079396202e-01,5.645339378093573446e-01,-3.013420636821858567e-01,-1.103243808370642398e+00,-1.910991811186767864e+00,-1.974774064802692797e+00,-1.741037708762551706e+00,-1.803103940498943958e+00,-2.452616524975084644e+00,-2.010500408644278814e+00,-1.000935097133588192e+00,-9.184207806829086662e-01,-3.222430550448310171e+00,-6.022018890615432163e+00,-7.408772781529137319e+00,-8.235657770889934781e+00,-9.526158690167335408e+00,-1.075250734654079210e+01,-1.057591210309717589e+01,-8.846999983093601472e+00,-5.224854827945850211e+00,-7.458472973914744841e-01,3.887185507988839106e+00,7.021619527530479132e+00,8.257082825802109838e+00,7.699707873682422488e+00,5.342007644392178456e+00,1.880302183286752804e-01,-6.342837506126100422e+00,-1.199866114577972809e+01,-1.436330708285244206e+01,-1.331125111895988056e+01,-1.076372141474237765e+01,-8.609292434895667867e+00,-5.119288715862368555e+00,1.242854990155299433e+00,1.014358158225129181e+01,1.713115484359368068e+01,1.909645366100954433e+01,1.628688595206870104e+01,1.102213122678949908e+01,5.406725140846326383e+00,3.222925134638398248e+00,2.769516446788644615e+00,1.989623306310125406e+00,-1.254994945049714650e+00,-4.139917297155434106e+00,-5.983474057498048282e+00,-6.509411739133007302e+00,-7.992809556154883310e+00,-5.838786914360920122e+00,-1.030830636269715717e+00,4.385891704109005751e+00,4.508371559369162007e+00,2.063334796593283116e+00,-5.367654697420076032e-02,1.490974900341051512e+00,1.171015886564610975e+00,6.331620205609187479e-01,-1.951082351873902443e+00,-3.626333064035646814e+00,-7.430756882517684403e+00,-7.734287741253928594e+00,-9.318224816340094918e+00,-6.612356181327979421e+00,-8.205237095674069892e+00,-1.888317880457532016e+00,-4.239025618511166549e+00,1.012839617829230043e+01,1.128642127335168084e+02,2.552164025035255293e+02,4.609932987010013790e+02,5.605654963515893314e+02,1.946438810505728725e+02,-3.103890371378804502e+02,-1.637068345274943795e+02,5.279406069472950769e+00,-1.761001027628990911e+01,-8.753439883274159783e+00,-1.212293781385212021e+01,-9.018433572146980381e+00,-9.100216031308102416e+00,-7.360083955451812265e+00,-6.214513621673925847e+00,-2.291826696389410944e+00,1.308005435299615771e+00,3.366878696597420006e+00,3.414664401489062584e+00,3.055001730072141264e+00,2.928210738932862434e+00,2.248886327669383789e+00,1.952933842731111813e+00,2.569858653007164317e+00,6.101528966250615582e+00,1.317256457823680194e+01,2.517873469112030449e+01,4.054762714289523018e+01,5.809324642789722759e+01,7.137892237081878477e+01,8.015661387842827423e+01,8.495250380439841820e+01,8.765656392016467180e+01,8.690356867347976788e+01,7.719838450402603769e+01,5.709555282181804614e+01,3.331389791166806447e+01,9.635482664248081974e+00,-5.682870042392579535e+00,-1.438674008994783549e+01,-1.435681576609413668e+01,-1.212754924792504596e+01,-9.887279407762738614e+00,-9.409815553644696351e+00,-6.759791727122312466e+00,-2.804915067108369353e+00,9.713995172385330168e-01,1.211939866780735731e+00,-1.047005312953464551e-01,-2.279680813090730229e+00,-3.347740953214454862e+00,-4.909009692986577633e+00,-4.776685865981760593e+00,-3.221951500598428719e+00,6.134169176464552287e-01,4.220691463489575135e+00,8.136850979915971394e+00,1.014817543896701579e+01,9.593627680661205304e+00,4.335165609921794783e+00,-7.841356510445286476e-01,-3.356178858965576328e+00,-2.453406165192673516e+00,-2.647813445112836561e+00,-4.136964712803399280e+00,-7.347954836488195696e+00,-8.607683447874469707e+00,-7.741485800027383846e+00,-3.946923952938695468e+00,-9.991857533550355663e-01,1.521177962161411601e-01,-1.046266682932235126e+00,-1.223480154611161552e+00,-2.739851378957573469e-01,3.328531331083368183e+00,5.532266587206878583e+00,4.343328571410122407e+00,-1.094520803673739939e+00,-5.698859352718344873e+00,-8.811059619917548602e+00,-1.065421542127254639e+01,-1.266516392396582091e+01,-1.198482223669813962e+01,-9.138429927926225105e+00,-5.521738558233283634e+00,-2.284816903318309667e+00,2.144762881893039097e+00,6.765666833570356253e+00,1.069599153924450619e+01,1.268286001835529220e+01,1.395715577487936265e+01,1.301722970965244386e+01,1.019607517309577815e+01,6.508927528636530901e+00,4.071705420984380375e+00,2.539339584950926376e+00,1.239735743381565669e+00,-1.909964871293378330e+00,-6.361636555138487914e+00,-1.039847231814261797e+01,-1.192047038519200441e+01,-1.188589738534570017e+01,-1.215052275932652570e+01,-1.265887616881173017e+01,-1.166700607672096268e+01,-9.045646371077234349e+00,-3.249144700764655003e+00,2.919978840920975482e+00,8.639417323734589260e+00,8.485570664486830950e+00,3.967054975776704850e+00,9.546191493903222636e+01,1.970376045055404859e+02,3.400056418414199584e+02,4.326154565002786967e+02,1.685934426573520284e+02,-3.181664738574938838e+02,-2.096760353839301558e+02,-1.095390977808240685e+01,-3.207379688248366989e+01,-1.380306930945688570e+01,-1.284459629026676808e+01,-1.192392675517115030e+00,-2.745910420185809109e+00,4.721392253395107375e+00,6.567197340537825667e+00,1.339537183358285688e+01,9.885188062488280636e+00,8.901035129425064696e+00,3.109807750247087554e+00,2.502310385302364271e+00,-3.016786046039441338e+00,-4.078422253204393222e+00,-7.070990011229465466e+00,-3.843720880422852204e+00,-1.167930057740351080e+00,1.023076793887604197e+01,2.450690836829265251e+01,4.615529059479841578e+01,6.308882624816941842e+01,7.643494734740880858e+01,8.255202227482918431e+01,8.991934211693455836e+01,9.288883830814435782e+01,9.537867180002918133e+01,8.996465515632178267e+01,7.652839883315252223e+01,5.391435047846645290e+01,3.393906279068502130e+01,1.329087924922437303e+01,3.999890290505088597e+00,-5.801390006298214885e+00,-1.078898759046817446e+01,-1.591491781592776533e+01,-1.609828401684419674e+01,-1.773907845818303386e+01,-1.496878524895658558e+01,-1.370172456996531096e+01,-9.646179942067107049e+00,-8.786952769415465880e+00,-4.391795489630061944e+00,-2.973495698599756265e-01,8.066072059052363130e+00,1.450952895720168812e+01,2.321808200897183028e+01,2.498349003353786557e+01,2.516745779029628594e+01,1.889436954268803959e+01,1.228086464877435979e+01,3.197925788309046169e+00,-2.926690387485459066e+00,-1.095227285109492499e+01,-1.406087161964405396e+01,-1.735662278112523538e+01,-1.541821817270571060e+01,-1.430829322738137677e+01,-9.275628504736959101e+00,-5.690880104650599236e+00,2.449873128425014368e+00,9.409492274969869285e+00,1.634588922823611767e+01,1.330502255668214140e+01,8.690661377109821117e+00,2.215776325209326991e+00,1.128893566967011486e+00,-5.210526336479105680e+00,-1.277475819733828288e+01,-2.298029435690229150e+01,-2.625018302820559057e+01,-2.838712038002977422e+01,-2.367738354978497739e+01,-1.847901936463351191e+01,-6.457239463379138122e+00,2.406280271876362065e+00,1.350014449842222497e+01,1.722183344361043567e+01,1.954374402561607837e+01,1.340146716112745651e+01,8.307948737639124559e+00,-2.436217182335917109e+00,-9.230663153476433180e+00,-1.865242673284357267e+01,-1.958469573731034430e+01,-2.725231915436307872e+01,6.663483857219360118e+01,1.630869348841629289e+02,3.112023834939063818e+02,4.309857019663280084e+02,2.177310858012523340e+02,-2.810740070723487634e+02,-1.662726603600544593e+02,4.060651695443187492e+01,-3.052392734185379375e+00,5.971265119305433799e+00,-9.635092527816759400e+00,-1.025855289949254256e+01,-2.204786087895915614e+01,-2.415043394797251608e+01,-3.239749782698980596e+01,-2.980145981307302350e+01,-2.686685901140137389e+01,-1.127142446137504450e+01,2.672519058855221452e+00,1.760263890722443136e+01,2.296090232749338611e+01,2.581013252719271378e+01,1.924141271787893714e+01,1.995016201484565954e+01,7.669806716324369944e-01
-1.160654539813555486e+00,1.624954821055414556e+01,8.533649549224472608e+00,6.139624241216015577e+00,3.945869548245257707e+00,1.632287771959783473e+00,-1.109874599530477957e+00,-6.182964032435396717e+00,-1.867047469688326444e+01,-3.538474669142951257e+01,-5.152510357650377415e+01,-6.675538892838501681e+01,-8.045629837523534889e+01,-9.552327713379963825e+01,-1.053924723673986819e+02,-1.077065127197449357e+02,-1.018083286467618649e+02,-9.259371964023640089e+01,-7.720985881201788459e+01,-6.163409064921756908e+01,-4.517788705440085550e+01,-3.113530032145413884e+01,-1.930600432485271156e+01,-1.113195708721883292e+01,-4.793912733400206072e+00,-3.407783531643829189e+00,-4.722632305603008951e-01,9.634667917280982374e-01,3.312780889643338611e+00,3.015413885981112596e+00,4.472280881754425508e+00,3.496091715713141923e+00,2.460558291047322932e+00,-1.889615558458317857e+00,-3.748397589606375480e+00,-5.833499950241088250e+00,-4.277397391807724603e+00,-3.910879914056773377e+00,-1.140272618527150339e+00,-5.479527764700047321e-01,1.642493486319805518e+00,1.620314205368784899e+00,4.264022576081472948e+00,5.693732616134060009e+00,9.830257638246733265e+00,1.215574307400110499e+01,1.574352848528405957e+01,1.495173797763766110e+01,1.393902226849360204e+01,9.049138520441612599e+00,6.885702076426999163e+00,2.247403112198051556e+00,7.613053595147269981e-01,-3.318678163406579174e+00,-3.304081577290504335e+00,-5.703091506704362601e+00,-4.252540833611292648e+00,-5.512176767038007519e+00,-2.167098317160498944e+00,-1.339969799563067498e+00,2.629405649584972693e+00,1.864832168912468724e+00,4.082476670100266603e+00,2.061383390082863531e+00,2.752361029862067543e+00,-7.700931750831493394e-01,4.250080326845716572e-01,-2.223576341890105112e+00,-1.580330580455379108e+00,-5.365644519679045210e+00,-3.511791693197259701e+00,-5.465344448579111614e+00,-3.285256799629677094e+00,-6.493468111861976588e+00,-3.984808704591740636e+00,-5.754303426610771766e+00,-2.213280062249722402e+00,-4.546640981945826887e+00,-1.123599675612799276e+00,-3.029822986562177523e+00,1.596364793390198766e+00,8.198419862333219399e-01,7.243561106842064667e+00,6.327994559849845047e+00,1.118171669745547803e+01,6.748684887962975054e+00,9.332361442514672589e+00,2.480369048960929135e+00,4.709350165593999549e+00,-2.226195004235644870e+00,2.120071720867396259e+00,-4.598405537784720387e+00,1.546976304481622044e+00,-5.551546621329551456e+00,1.906884539642984322e+00,-9.339911850675347793e+00,6.772176243614929092e-01,-1.174042242283421444e+01,2.767848099852091082e+01,-1.205704637002791912e+01,-2.468925725164146741e+02,-6.783153440491602169e+02,-6.075597268925947674e+02,-3.090961282106273984e+02,-5.269524487178900074e+01,9.108866067625906737e+01,-4.920628807766829205e+00,1.219220644478642690e+01,2.819502047787513899e+00,1.225332152823250631e+01,3.464427829550899673e+00,7.215575362827279626e+00,-3.433676582686952528e-01,4.590114737385092347e+00,2.465261092154646949e+00,8.181960122988426676e+00,4.873445366160199299e+00,5.287144472158470165e+00,-6.246844304712606544e-01,4.160429553243157746e-02,-2.893957726968141131e+00,-1.234693035988412513e+00,-4.624204703410074835e+00,-4.721960223868058470e+00,-1.251622188199426233e+01,-2.326978420395115066e+01,-4.066759639439897711e+01,-5.532721358354555719e+01,-7.061520586694011570e+01,-8.399765470082945740e+01,-9.890056349299413796e+01,-1.068102518925190481e+02,-1.080756952881457096e+02,-9.913490003154716135e+01,-8.696495155892412754e+01,-6.671091197823010077e+01,-4.766952957602917706e+01,-2.924572593825674360e+01,-1.506813034489585590e+01,-6.380240552329969894e+00,-3.390618640877860468e+00,-1.503037811707800486e+00,-5.563684302408911098e-01,8.895908485715772196e-01,1.629750512923470396e+00,1.413574845588009055e+00,-6.241272460888940693e-02,-1.047902607655058160e+00,-8.272590309091581995e-01,1.010096750657825115e+00,2.669530889015336417e+00,3.017312484998465827e+00,2.273598800473683568e+00,8.587255419090507047e-01,-1.148792570770485466e-01,-5.689943897214252422e-01,5.625684340139938122e-01,1.045020667253297786e+00,1.057832111095238448e+00,-1.133466610027884514e-01,9.170798761311278469e-01,1.209018736651112036e+00,2.479498119294408109e+00,2.940394398066596526e+00,5.771533987765997686e+00,5.996781473074587865e+00,6.150903301316204441e+00,4.356642570853652252e+00,4.401480831845398178e+00,2.847964292178158274e+00,2.054963940160233538e+00,-1.919525392180794654e+00,-3.927181663081888541e+00,-7.118358299951488277e+00,-6.793173236566345530e+00,-8.177457066100821237e+00,-5.806163701024046553e+00,-5.465993316428317428e+00,-2.129830586994579278e+00,-1.839440480602672512e+00,2.699026182842894972e+00,3.744435564879136091e+00,5.871319961497984963e+00,1.862818884532235320e+00,2.171169623924425363e+00,-1.169786396767400038e+00,4.327491396330006568e-01,-2.735205233058080054e+00,-1.962203989157642464e-02,-1.847594637309602605e+00,3.689943097663490601e+00,8.333029065691313519e+00,3.543914872658169202e+01,-4.860331556826771049e+01,-3.486827780363317970e+02,-7.276656327610008930e+02,-5.367630336188384490e+02,-2.693892879815554693e+02,-3.247741775970498068e+00,7.549337819316309606e+01,-5.710926736376109147e+00,1.568969804024033898e+01,3.143767200183263277e+00,1.144663977247390463e+01,3.262518135957781062e+00,9.899352371882294221e+00,6.256091180676833119e+00,1.241985748034973014e+01,7.937502453170269590e+00,8.188483142962899919e+00,-6.608324997131720391e-01,-4.482224468086313252e+00,-1.292388688953249165e+01,-1.481005323042533384e+01,-1.839248511247517470e+01,-1.605807326923675404e+01,-1.961400054516539981e+01,-2.372254501249495817e+01,-3.715540320557891363e+01,-5.115296181608368897e+01,-6.611305965870216994e+01,-7.943068916923391498e+01,-9.583458621369170771e+01,-1.068495427793085355e+02,-1.174300444812193547e+02,-1.205618138986589543e+02,-1.196084309145147984e+02,-1.085969205572149860e+02,-9.046940668449673240e+01,-6.799366536162682451e+01,-4.609527470725684140e+01,-2.597165791716710359e+01,-1.093832016169740484e+01,-1.566079099757264226e+00,3.205410347958264516e+00,5.148218890243391854e+00,6.804234674192106702e+00,7.396284007812237604e+00,8.366932204079326141e+00,6.326909174796281121e+00,3.176552103414124417e+00,-1.801142539136212140e+00,-4.130870269818802676e+00,-5.994044434137087762e+00,-4.389239689498342756e+00,-3.482050064769556030e+00,-5.961879909305600744e-01,6.846095838810143386e-01,4.764768405557505915e+00,5.737676056302827732e+00,5.782777758221654629e+00,1.310735569040384130e+00,-7.744956513174111601e-03,-3.264601399072031285e+00,-2.096183120930375399e+00,-3.664474423002792580e+00,-1.618874824397509293e+00,-5.089949662226849192e+00,-4.757986336643582170e+00,-8.249863407361372580e+00,-4.287743311074637909e+00,-4.048483996396170959e+00,3.268924383326317962e+00,2.800761840765853439e+00,8.254174132758963722e+00,4.484054536550305947e+00,9.994255051012537194e+00,4.555939736725971301e+00,9.472905439035821828e+00,-8.443383379672728672e-01,6.125334956765259520e+00,-3.005040499013816202e+00,2.388204385594068668e+01,-1.846595258411502272e+01,-2.131382428149630925e+02,-6.467947148637991859e+02,-6.468287182970848335e+02,-3.247747100503681850e+02,-1.108555488398937570e+02,1.071557204507155205e+02,1.590010565143106014e+01,2.048395146525887611e+01,2.058694018445869744e+01,2.024671565745049406e+01,1.598594055905197742e+01,1.454326020335778757e+01,8.339163988864283894e+00,6.429890349265065197e+00,-1.657728520315839005e-01,-1.578116732701288605e+00,-6.907680479219678205e+00,-6.942331743631889651e+00,-9.860935336386541294e+00,-8.482684846375446952e+00,-1.172915063729261043e+01,-1.279943251839388552e+01,-1.930558808025009654e+01,-2.339908769036097169e+01,-3.372002494880871382e+01,-4.461159769387852947e+01,-5.751345656064097511e+01,-6.807650556803719155e+01,-8.235482548956768767e+01,-9.628799648352770646e+01,-1.085670497832767865e+02,-1.153384086896081584e+02,-1.143021808020595955e+02,-1.018997375707272255e+02,-8.544216158953000217e+01,-6.465301272252877141e+01,-4.557011061306090483e+01,-2.808527228866197589e+01,-1.519490048472853516e+01,-6.211576490965253328e+00,-2.004149302855518400e+00,9.942597083974513694e-01,3.195564496012766043e+00,5.094915288697603017e+00,6.509817754449747973e+00,6.356018621415799430e+00,6.024476740902712457e+00,5.505944170577351748e+00,5.747528688726654345e+00,3.790352843127798632e+00,2.217544367428034402e+00,-8.888415208401552192e-01,-1.966614854775095900e+00,-4.352079680701188558e+00,-2.941238131985219884e+00,-1.622200753003498752e+00,3.802540000205615556e+00,5.991939594512459166e+00,9.753397692862977308e+00,9.049624718257467393e+00,1.038446197951079419e+01,7.859316823425773535e+00,9.694083368766401421e+00,5.913800378621733245e+00,5.716385473827050312e+00,-3.078767971233417722e+00,-4.375157795160155239e+00,-1.215956623140907311e+01,-8.018468192333093825e+00,-1.409247134294462356e+01,-6.526334084404166624e+00,-1.348218647143835192e+01,5.902302840898697722e-01,-7.826231997843914101e+00,3.304787094537171299e+01,7.193256715710885096e+00,-1.732296724712657863e+02,-6.077814338841643576e+02,-6.403754981637144965e+02,-3.132229500194316074e+02,-1.173068334531818522e+02,1.038538805234223474e+02,8.597298466069398515e+00,1.021880461585575084e+01,8.049197420983053020e-01,7.958569159628017253e+00,-1.618497854554021620e+00,6.812943826364798561e+00,8.308386737361275198e-01,9.950451736239820377e+00,6.550196951759471808e+00,1.479809471334012727e+01,1.004128252546774291e+01,1.216282849164752200e+01,3.293109454161884830e+00,2.970240690650272075e+00,-7.182022825025393686e+00,-1.331768122923094921e+01,-2.999051172372301366e+01,-3.882555229280201559e+01,-5.510513412647497233e+01,-6.001552905707536922e+01,-7.066104699722846760e+01,-7.261366397609664602e+01,-8.454596489385930624e+01,-9.161902303916654944e+01,-1.046623239465184838e+02,-1.065043418966740774e+02,-1.056023663519567037e+02,-8.990305567604455916e+01,-7.521635284361700258e+01,-5.259943094660644647e+01,-3.876991101845930388e+01,-2.258121639684264181e+01,-2.051270995247938700e+01,-1.296215130357493983e+01,-1.261758325806846770e+01,-4.949594189473016215e+00,-3.985681409274312248e+00,3.371155901022997892e+00,2.444455339226502488e+00,5.861793450931452654e+00,2.040898693952621024e+00,4.797553616429061307e+00,1.395122594717107312e+00,3.513935312557662893e+00,-2.338574677226181731e+00,-3.136462536094004605e+00,-9.557621087096784152e+00,-7.210866041173355612e+00,-8.333339299085137597e+00,-2.247154377583025830e+00,-2.156731590168222024e+00,3.485574893779601169e+00,2.574443905550233946e+00,6.444135826316372828e+00,3.746174258561056014e+00,6.794336093505804364e+00,3.188388302260759311e+00,5.652808040349633245e+00,2.804195543908788224e+00,6.527997136306009196e+00,3.637729300598540050e+00,5.517158983300063824e+00,2.331728450594353630e-01,1.818507756615318049e+00,-1.323145057079004427e+00,3.576102530701065874e+00,1.991987883020847283e+00,5.770477212437146619e+00,1.605982899251603646e+00,2.980846717490548414e+00,-3.329486445423814001e+00,-2.624954754897329323e+00,-7.394883676690092500e+00,-3.723649663504207563e+00,-7.609490432589480768e+00,-4.154101662486715973e+00,-6.974123382902871704e+00,-9.799296912999125395e-04,-1.323435411311453258e+00,4.077456378772565948e+00,-4.698904157132339776e-01,4.207708301096886316e+00,-1.215980111146305553e+00,3.186561857174723844e+00,-3.170618618153115520e+00,3.283200265732880929e+00,-2.195840807267276151e+00,4.564163490065509698e+00,-6.124840093334130486e+00,8.638574113568291413e-01,-1.051115203063618431e+01,1.005011888371044826e+01,-1.906459747527614113e+01,-1.960603389149189866e+02,-6.117817059200345966e+02,-6.884975018208043593e+02,-3.751412996967828235e+02,-1.206917722521248493e+02,9.115345208724971826e+01,1.711898130967542997e+01,8.383920236738878984e+00,1.291912391793331771e+01,1.383847092234192466e+01,1.152371025505187241e+01,8.278666284633059647e+00,5.257370315559438900e+00,4.371794038823329842e+00,2.450291722800821859e+00,-1.396741695737888367e-01,-2.175643063557650692e+00,-1.478230753422293375e+00,1.783686777078012486e+00,4.625665094239919561e+00,5.060290742501794448e+00,2.390196488863296942e+00,-3.860281529798521571e-01,-4.826460980665963518e+00,-9.416350715447258324e+00,-2.017005394944322916e+01,-3.328260861641356172e+01,-5.454343510817776775e+01,-7.355357430849794298e+01,-9.071727399474536924e+01,-1.009106101213456270e+02,-1.046536275971058814e+02,-1.017694456858533698e+02,-9.402830245090697758e+01,-8.053269112409449804e+01,-6.498473926370745346e+01,-4.713535998187777665e+01,-3.189633860357547235e+01,-1.873506298169811757e+01,-1.226208466641122108e+01,-5.631793554476228536e+00,-2.775668582705118403e+00,2.406478590912971782e+00,1.517805334527200900e+00,3.370587922227722188e+00,1.349972120004889087e+00,2.382580061197868915e+00,-2.342880593235472375e+00,-3.806925656367349475e+00,-8.404612456561567413e+00,-7.862304332724962208e+00,-1.074502859918367115e+01,-8.149344457700525624e+00,-9.206317847450966596e+00,-4.671588092972256412e+00,-6.172255858589668520e+00,-3.315409256605394095e+00,-5.535186221437616183e+00,-7.030768100980029356e-01,-1.635409147011507747e+00,3.215447785605947573e+00,8.612619394704044140e-01,5.748101345782708371e+00,2.894931961339124449e+00,7.355638072087611334e+00,3.288250649420515259e+00,8.298822268785441381e+00,3.688633123376092726e+00,1.041715030913431406e+01,7.257282330970541651e+00,1.637591888100766013e+01,1.110993117842755495e+01,1.906364483778528651e+01,8.945179912185833970e+00,1.983834933386786048e+01,7.079361684990693071e+00,4.379366196676477330e+01,-1.144136060171655700e+01,-2.039960462110662434e+02,-6.400972230465573602e+02,-6.393556723338664369e+02,-3.202281019279822658e+02,-1.044494040683762819e+02,8.970837472716526406e+01,3.437469235013562496e+00,9.019980631120892767e+00,1.460726573708612142e+00,1.241399287174626132e+01,5.450090999954901427e+00,1.192254606934890049e+01,2.973667023506571194e+00,6.087736493300594631e+00,-2.985643430215288774e+00,-1.859798769016101305e+00,-1.138406965892195188e+01,-1.150777050579417349e+01,-2.014700602307608790e+01,-1.870184883998260617e+01,-2.345869349122730796e+01,-2.172476794103680930e+01,-2.902531186466453761e+01,-3.527517938653591756e+01,-4.888925631136328320e+01,-5.619147491130122773e+01,-7.058963380173985058e+01,-8.120325901392021706e+01,-9.907664366132053146e+01,-1.067084762839982943e+02,-1.162109307583491784e+02,-1.191438718504659420e+02,-1.224087489464499754e+02,-1.111502341895883319e+02,-9.594076983928960090e+01,-7.416636558248802658e+01,-5.583508037738462804e+01,-3.553194589749028864e+01,-2.258041035707160660e+01,-1.037104557776225988e+01,-5.587829277179928944e+00,8.573107762644904817e-02,2.639873557799045312e+00,6.306794404894414896e+00,5.834935030321259042e+00,7.000986752140895497e+00,5.199907801557426268e+00,4.952093030786002714e+00,2.190104090430564199e+00,2.473382895778364343e+00,6.889965020236327176e-01,4.762266504844883674e-01,-2.920896841943456224e+00,-3.136127332858530181e+00,-4.416235193286808247e+00,-2.645140150303428861e+00,-2.724309179666066782e+00,2.356473899150136608e-01,1.327012457982936100e+00,3.883985827032145899e+00,4.020750120096457714e+00,6.042628788346747548e+00,4.680924179095809379e+00,3.665819124859436506e+00,7.781814186273405820e-02,-2.906576051209551204e-01,-1.484643730803749451e+00,5.106325350981031352e-01,6.465658849993780044e-02,1.099252661843004075e+00,-1.307641824411088782e+00,-1.360483730434306260e+00,-2.952616504119627727e+00,-1.167617878793396846e+00,-1.043473651655220769e+00,2.104623749200003058e+00,3.821993401736580420e+00,7.036403985738800770e+00,6.029856458941729613e+00,5.187493410276927897e+00,2.289613383174916805e+00,1.367391331840691393e+00,-1.176974689350748671e+00,-1.143839516460197103e+00,-1.762676788691550644e+00,-4.579876626131412221e-01,-1.723970956171174684e+00,-1.409438312794471848e+00,-2.364184336290933608e+00,-6.670723681622112711e-01,-5.615241813228858403e-01,1.613629664446780243e+00,1.361344837281761144e+00,2.534184255487617055e+00,8.991392241835914900e-01,1.024591275753281794e+00,-1.440392897154533669e+00,-1.988155193812702892e+00,-4.992831527216865517e+00,-4.599716738407906291e+00,-5.581563256369415527e+00,-3.030871447777633065e+00,-3.283014104091964480e+00,-1.251121832906159637e-01,1.670947995963895927e-01,3.454205404221288411e+00,2.381225997318609622e+00,5.384609007579227224e+00,4.511229315880270541e+00,6.625825049769261454e+00,6.814493729750917828e-01,-7.058923028866919136e-01,-8.030909837081710023e+00,-4.746550726206000270e+00,-8.769023656861469007e+00,5.461927849968003734e+00,9.049518934715937490e+00,-1.033723684994406540e+02,-4.785752133117205744e+02,-7.351764209137788839e+02,-4.533407104079994951e+02,-1.955340171501621853e+02,6.592577875893742601e+01,4.473828220885592089e+01,-3.245476901658298718e+00,9.558358592438256807e+00,1.908734955916076448e+00,4.417311656224116589e+00,2.475871926602470907e-01,1.557250134945438402e+00,8.744357986338654465e-01,4.113976754485398679e+00,4.852352444676597543e+00,8.429557853555360580e+00,9.606566349447257736e+00,1.150514842964809858e+01,8.939439937245415635e+00,6.805944718504865598e+00,2.287782271681345403e+00,-2.323383033909881323e+00,-1.238627625497960594e+01,-2.519876653822657886e+01,-3.972924685354321639e+01,-5.247581937621868065e+01,-6.437447734938267274e+01,-7.650862689001009187e+01,-9.115723243265028941e+01,-1.035426466782903674e+02,-1.120090630300798011e+02,-1.108145274112964245e+02,-1.053315020467285734e+02,-9.633792900963163675e+01,-8.068171860531259654e+01,-5.994153366508204783e+01,-4.000383964069578013e+01,-2.208062479443645998e+01,-1.190343727553584685e+01,-5.968626443133143056e+00,-3.109130501330714225e+00,-1.678097297629504325e+00,-3.589733553719507864e+00,-4.714775625454434405e+00,-4.270723289086006069e+00,-2.212904933118745365e+00,-7.801880984755875659e-01,1.153838395997907329e-01,-1.016517723213793967e-01,-9.906201322598067183e-01,-1.900498962985109674e+00,-1.996817053287741617e+00,-2.561423487561025336e+00,-2.667116712027330916e+00,-9.623156530928623775e-01,3.046413118529205377e+00,5.509491207486625797e+00,5.460501716839408992e+00,4.026940313870658095e+00,2.833897923810658526e+00,1.774627802714644709e+00,6.119194739573228237e-01,-1.323353993906034143e+00,-2.869378078162238221e+00,-3.021233031512672085e+00,-1.832869899519264045e+00,-1.055375548922449669e+00,-1.116382928922795781e+00,-7.847063845486671463e-01,5.536225641780940787e-01,2.446795165146385287e+00,4.776152377365774804e+00,6.107903582321471347e+00,6.399025546728552172e+00,5.763394372171203983e+00,4.854622565397980871e+00,3.806136763720143090e+00,2.262706346055314732e+00,2.542249206425243879e-01,-2.053468732595816970e+00,-3.905910530226121669e+00,-5.621297137577265346e+00,-6.457692932902986627e+00,-6.094786283866781673e+00,-3.998383501370949666e+00,-1.467080746276257841e+00,1.362106208051909961e+00,3.457251345453277835e+00,4.593021709326759350e+00,4.728561912329644734e+00,5.550021870359121756e+00,5.843563311701860385e+00,4.242523154736015378e+00,1.345902064119033570e+00,-1.140244971585091749e+00,-3.232735484340862886e+00,-4.975403749943219545e+00,-5.339073068124744026e+00,-3.796747818819205644e+00,-2.385935349768638858e+00,-1.830609802099010253e+00,-9.901797135290296703e-01,1.519561251435338711e+00,3.962807747246916090e+00,5.332781469900630178e+00,5.138902596153823055e+00,4.897533826165670234e+00,4.507135173616081403e+00,4.370485239317437376e+00,2.158246208525356202e+00,6.243851963012363449e-01,-1.775853642856469294e+00,-3.447269937129540107e+00,-6.160111445255566309e+00,-5.751704435439070728e+00,-5.217217105447874204e+00,-3.183961633961822635e+00,-4.062339286870288113e+00,-1.944291199169372097e+00,-1.805838510757064697e+00,1.600591321205576456e+00,-1.624157275737080131e+00,6.457893570132761107e-01,-3.578617133410610052e+00,8.765923495944338839e+00,1.414664513316949268e+01,-7.958311452026913457e+01,-4.387264399651556346e+02,-7.167583911161470951e+02,-4.538929899277329696e+02,-1.882331914761566907e+02,6.741968247821611726e+01,4.386994215720513068e+01,-1.423849702062038869e+00,1.500712567298531752e+01,1.075514876291774158e+01,1.509896042204120548e+01,1.192878344445722938e+01,9.814094568614466496e+00,5.601005892512521456e+00,3.397867043935154818e+00,1.691586750569693098e+00,-2.552295619729666454e-02,-1.361502954236880170e+00,-2.807248109152717497e+00,-3.359913053243112735e+00,-5.843893481355181052e+00,-8.700924717706611133e+00,-1.419092269919694616e+01,-2.053792704560057913e+01,-2.985980986745019194e+01,-4.239184501602716182e+01,-5.813345274416765562e+01,-7.285576502479129601e+01,-8.990749564793165405e+01,-1.032819391568938272e+02,-1.119463822203885286e+02,-1.152373669814330697e+02,-1.166489727131739187e+02,-1.114349875705285058e+02,-1.003803722889206824e+02,-8.179174865990815135e+01,-6.135228450896059371e+01,-4.001427745127128333e+01,-2.163007521352605167e+01,-7.724027385237814514e+00,-1.185881982606891816e+00,2.882121661528529000e+00,5.408083961787357730e+00,7.630308425811969997e+00,5.956510712447007805e+00,3.345120060585360822e+00,3.757295411226572734e-01,3.943046910913807213e-01,-5.728865953049243620e-01,-9.582085549753043274e-01,-2.845502280945872542e+00,-3.036070197150111394e+00,-4.543611706395330962e+00,-4.961884526858280964e+00,-6.185623960759340179e+00,-5.000535709022137176e+00,-4.206479463628610027e+00,-2.465310276264028211e+00,-2.020223197952407457e+00,5.671725901556493032e-02,1.982328340443916481e+00,4.133413605840024374e+00,4.349211052859700111e+00,4.708114019582477106e+00,5.197037200970247461e+00,6.872959229240762191e+00,7.303612059476247254e+00,6.616653291522680114e+00,3.425325079501161163e+00,1.703431164573789403e+00,4.928649811893710542e-01,1.695455455487754115e+00,1.517157067412546967e+00,1.715727204342326395e+00,4.083865396527748270e-01,4.342576044131769009e-01,-2.282723744299902935e-01,1.102463935054838862e+00,1.274769417146919492e+00,1.863600989309325939e+00,2.104405968997161980e-01,4.672669456367090079e-01,1.218270628245620157e-01,1.230798498126538520e+00,4.945002329013701292e-01,1.527599681457985747e+00,9.887160498510336737e-01,7.465845278336740165e-01,-2.562990436041548747e+00,-4.224459498299179216e+00,-6.281682842802094768e+00,-5.767043224792572254e+00,-6.286010595583985783e+00,-4.266785872692532067e+00,-3.487866632154683177e+00,-1.512290207175246870e+00,-2.333948395949719590e+00,-1.207375154039724396e+00,-2.385869499845984620e+00,-1.946183665098302429e+00,-3.818008995826020602e+00,-2.386807070129330022e+00,-2.199191328166306025e+00,1.903527489435253628e+00,2.703189749482786564e+00,5.400904800911806802e+00,2.288610676711541725e+00,5.422438152993040106e+00,3.652318271847674769e+00,1.902451922019920971e+01,2.728569521718964808e+01,-7.802778515694745920e+01,-4.370068086893479062e+02,-7.290537888999688221e+02,-4.673274671361284618e+02,-2.095380867127557849e+02,5.952199812747348062e+01,6.525970355752365037e+01,1.681437728362222161e+00,2.716532445417917074e+01,1.171649583041370768e+01,1.807650849244845404e+01,8.754124243145669837e+00,1.031695951743245132e+01,2.107758320604089075e+00,7.467157462916992339e-01,-5.297561766604665934e+00,-4.697570074259088457e+00,-7.756864857611391884e+00,-5.026347170227882799e+00,-4.998574224104022079e+00,-1.049752639835525914e+00,-2.350985275678674213e+00,-2.261989886406343242e+00,-8.419548068125511264e+00,-1.841077501378930847e+01,-3.494325524496203172e+01,-5.056742167526882525e+01,-6.678512062438132091e+01,-7.958886743135255415e+01,-9.562508656272888174e+01,-1.055924598176088267e+02,-1.147196996883786824e+02,-1.169283530460586746e+02,-1.131774399565998976e+02,-9.851154688998198594e+01,-7.948953591995655188e+01,-5.568590483000495084e+01,-3.646567080952009832e+01,-1.798733867947096599e+01,-7.899786880961833901e+00,-4.199445118548373879e-01,1.057341759385852065e+00,2.098209338753981523e+00,3.338034938539058416e-02,1.015274570111563746e+00,4.533207990811730648e-01,1.408550271286244993e+00,-6.585289943004027369e-02,3.460135629949742109e-01,-6.761052109135577970e-01,7.210832193317561201e-01,6.947009310237503010e-01,1.765286186068995011e+00,-5.789182380208396372e-01,-1.162910787828983272e+00,-2.628343772102752496e+00,-1.379703264095082371e+00,-2.115859941428549718e+00,-5.761418492641725564e-01,-7.679585789799087125e-01,2.853309103862782803e-01,-9.889421476560769086e-01,1.641242034357576207e-01,-2.101210650623092369e-01,1.702010542080753197e+00,2.182190800002699937e+00,4.874771651126281746e+00,4.683209846117101449e+00,5.635620015883993972e+00,4.311797092602774661e+00,5.067405921603879371e+00,3.799569764585537524e+00,4.036797607937164578e+00,1.619887404282280619e+00,2.143299063600083265e+00,2.130043694793645415e+00,4.401382078287627841e+00,3.701996814608734532e+00,4.545468644478291687e+00,2.896941117144152145e+00,1.918358920196427952e+00,-1.995398954463322383e+00,-3.136996329222551338e+00,-4.348629405080352228e+00,-2.182952264919464813e+00,-7.349895351821470468e-01,2.391443343359473950e+00,4.245531754792213341e+00,5.579584351519766727e+00,7.998062833973704322e+00,8.380772889391071345e+00,2.006863955643730435e+01,2.674529242282569896e+01,-8.354222386436528325e+01,-4.413529114411494447e+02,-7.517037483423305275e+02,-4.876588995614687860e+02,-2.393249892893561537e+02,2.078855610435352474e+01,5.044255039140723085e+01,-8.642907207702064554e+00,1.365933937385083574e+01,6.133141070447094556e+00,1.367746839306474271e+01,8.957427634683163831e+00,1.293050426442619738e+01,1.114099614281414219e+01,1.234873616031786625e+01,8.451668144740748900e+00,4.648397367351940090e+00,1.097088714415436761e-01,-5.407210531367987905e+00,-9.283931818424727922e+00,-1.193307345541929188e+01,-1.126536762637072719e+01,-1.169629136088975940e+01,-1.488655816195819526e+01,-2.203279171033766559e+01
